ENTRY            F0926   20080414   20080710   20080516       F031
SUBENT        F0926001   20080414   20080710   20080516       F031
BIB                 11         21
TITLE      Optical potential and the description of proton
           scattering on 26Mg in the low and medium energy region.
AUTHOR     (E.A.Romanovskij,T.I.Spasskaya,A.M.Borisov,S.V.Ermakov,
           B.S.Galahmatova,N.P.Sikorenko)
INSTITUTE  (4RUSMOS)
REFERENCE  (J,IZV,50,129,1986)
           (J,BAS,50,125,1986)
FACILITY   (CYCLO)
DETECTOR   (SILI) Si(Li) detectors with the thickness of sensitive
           layer of 700 mu-m were used.
MONITOR    To obtain absolute cross section values back scattering
           spectra from thick 26Mg target and thick Au target for
           the same amount of incident protons were measured.
SAMPLE     Thick target of 26Mg (87.3% enrichment) was used.
           Target was a plate of 0.5 mm thickness and of 18*6 mm
           size.
METHOD     (TTM)
ERR-ANALYS An accuracy of cross section measurements was 5-7%.
           (EN-ERR-DIG) Energy digitizing error
           (ERR-DIG)    Data digitizing error
HISTORY    (20080414C)
ENDBIB              21
COMMON               2          3
EN-ERR-DIG ERR-DIG
MEV        MB/SR
 0.0017      1.45
ENDCOMMON            3
ENDSUBENT           28
SUBENT        F0926002   20080414   20080710   20080516       F031
BIB                  2          2
REACTION   (12-MG-26(P,EL)12-MG-26,,DA)
STATUS     (CURVE) Fig.1
ENDBIB               2
NOCOMMON             0          0
DATA                 3        340
ANG-CM     EN         DATA-CM
ADEG       MEV        MB/SR
      36.26     7.1327      378.2
      36.26     7.1558     356.63
      36.26     7.1975     352.63
      36.26      7.227     330.05
      36.26     7.2707     333.27
      36.26     7.2835     308.57
      36.26     7.3188     315.89
      36.26     7.3458     329.37
      36.26     7.3791      330.5
      36.26     7.4144     336.79
      36.26     7.4481     312.15
      36.26     7.4774     299.88
      36.26     7.5169     308.24
      36.26     7.5378     299.02
      36.26     7.5755     284.71
      36.26      7.609     269.35
      36.26     7.6464     277.71
      41.42     7.1126     283.27
      41.42     7.1523     277.37
      41.42     7.1838     254.45
      41.42     7.2214     238.55
      41.42     7.2611     234.65
      41.42     7.2986     233.75
      41.42     7.3341     220.84
      41.42     7.3673     233.92
      41.42     7.4028     231.01
      41.42     7.4342     217.09
      41.42      7.482     229.21
      41.42     7.5196     216.31
      41.42     7.5511     196.39
      41.42     7.5968     207.51
      41.42     7.6343      207.6
      41.42     7.6737      220.7
      51.63     7.0836     123.91
      51.63     7.1042     132.66
      51.63     7.1526     112.76
      51.63     7.1946     97.418
      51.63     7.2465     105.37
      51.63     7.2863     95.846
      51.63      7.332     105.04
      51.63     7.3778     105.08
      51.63     7.4197     95.563
      51.63     7.4718     93.952
      51.63      7.509     106.88
      51.63     7.5507     104.84
      51.63     7.6008     101.98
      51.63     7.6485     108.26
      61.91     7.0814     77.518
      61.91     7.1191     67.765
      61.91     7.1547     62.266
      61.91      7.186     57.614
      61.91     7.2216     52.966
      61.91     7.2652     56.836
      61.91     7.2964     59.843
      61.91     7.3317     66.259
      61.91     7.3755     64.597
      61.91     7.4048     58.241
      61.91     7.4485     59.558
      61.91     7.4754     67.243
      61.91     7.5296     64.739
      61.91      7.565     65.623
      61.91     7.5899     71.604
      61.91     7.6337     69.942
      61.91     7.6628     72.947
      72.09     7.0641     56.974
      72.09     7.1002     41.894
      72.09     7.1459     45.742
      72.09     7.1896     45.337
      72.09     7.2273     40.676
      72.09     7.2707     48.989
      72.09     7.3079     56.023
      72.09     7.3643      53.71
      72.09     7.4021     45.647
      72.09     7.4437     48.218
      72.09     7.4955     54.408
      72.09     7.5372     52.939
      72.09     7.5704     55.931
      72.09     7.6223     59.357
      72.09     7.6622     52.359
      82.19     7.0743     32.559
      82.19     7.1138     35.638
      82.19     7.1531     40.757
      82.19     7.1887     36.696
      82.19     7.2261     39.162
      82.19     7.2611     46.726
      82.19     7.3006     47.766
      82.19     7.3425     44.116
      82.19     7.3805     34.141
      82.19      7.418     33.956
      82.19     7.4636     39.282
      82.19     7.4991     36.852
      82.19     7.5408     36.466
      82.19     7.5779     44.031
      82.19     7.6095     37.724
      82.19     7.6495     30.198
       92.2     6.5041     42.402
       92.2     6.5345     42.919
       92.2     6.5725     44.456
       92.2     6.6183     43.707
       92.2     6.6487     43.971
       92.2     6.6766     44.488
       92.2      6.702     43.733
       92.2     6.7224     42.213
       92.2     6.7554      41.46
       92.2     6.7833     41.215
       92.2     6.8086     42.494
       92.2      6.829     41.483
       92.2     6.8645     41.239
       92.2     6.8924     40.993
       92.2     6.9228     43.036
       92.2     6.9507     45.333
       92.2     6.9508     41.265
       92.2     6.9812     42.291
       92.2     7.0142     43.573
       92.2     7.0422     39.259
       92.2     7.0807     28.083
       92.2     7.1136     30.636
       92.2     7.1464     35.222
       92.2     7.2429     33.726
       92.2     7.2708     36.531
       92.2     7.3089     33.746
       92.2     7.3419     32.484
       92.2     7.3675     27.153
       92.2     7.4032      21.57
       92.2     7.4413     21.582
       92.2     7.4769     18.033
       92.2     7.5022     19.312
       92.2     7.5401     25.171
       92.2     7.5578     28.227
       92.2     7.5782     25.945
       92.2     7.6088     18.835
       92.2      7.652     17.831
       92.2     7.6798     21.654
     102.17      6.514     38.993
     102.17     6.5495     38.744
     102.17     6.5825     39.017
     102.17     6.6104     39.288
     102.17     6.6434      39.56
     102.17     6.6764     39.833
     102.17     6.7094     39.062
     102.17     6.7399     37.769
     102.17     6.7907     37.265
     102.17     6.8211     39.102
     102.17     6.8515     39.634
     102.17     6.8795     37.818
     102.17     6.9075     33.915
     102.17      6.943     34.971
     102.17     6.9709     36.807
     102.17     7.0141     34.735
     102.17     7.0626     25.622
     102.17     7.0931     24.068
     102.17     7.1336     28.517
     102.17     7.1614     31.136
     102.17     7.1918     32.712
     102.17     7.2325     30.639
     102.17     7.2706     29.609
     102.17     7.3088     27.536
     102.17     7.3393      25.72
     102.17     7.3774     24.691
     102.17     7.4182     19.748
     102.17     7.4488     14.542
     102.17     7.4844     11.685
     102.17     7.5073     10.128
     102.17     7.5276     10.918
     102.17     7.5605     14.582
     102.17     7.5962     9.8985
     102.17     7.6419     9.6539
     102.17       7.68     8.1022
     112.07     6.5255     31.221
     112.07      6.556     29.916
     112.07     6.5864     31.242
     112.07     6.6295     31.258
     112.07      6.655     29.688
     112.07     6.6956     30.492
     112.07     6.7337     27.611
     112.07     6.7591     27.094
     112.07     6.7896     26.579
     112.07     6.8225     28.695
     112.07      6.881     26.874
     112.07     6.9064     26.357
     112.07     6.9749     25.329
     112.07     7.0079     25.077
     112.07     7.0308     22.718
     112.07     7.0639     19.835
     112.07     7.1373     25.913
     112.07     7.1829     29.875
     112.07     7.2109     27.254
     112.07     7.2491     23.584
     112.07     7.3255     15.981
     112.07     7.4041     17.325
     112.07     7.4704     9.1922
     112.07     7.5136     7.1027
     112.07     7.5568      4.487
     112.07     7.5999     6.6071
     112.07     7.6381     1.6217
     112.07     7.6812     4.0049
     121.91     6.4952     25.599
     121.91     6.5486     23.797
     121.91      6.607     21.217
     121.91     6.6451      19.15
     121.91     6.6731     18.639
     121.91     6.7137     17.871
     121.91     6.7416     17.879
     121.91     6.7771      17.37
     121.91     6.8101     17.119
     121.91     6.8457     17.388
     121.91     6.8787     17.917
     121.91     6.9116     17.926
     121.91     6.9777     16.646
     121.91     7.0107     15.876
     121.91     7.0463     14.328
     121.91      7.079     22.385
     121.91     7.1196     23.694
     121.91     7.1577     23.964
     121.91     7.1983     25.014
     121.91      7.239     19.573
     121.91      7.262     15.166
     121.91      7.318     8.6917
     121.91     7.3534     14.932
     121.91     7.4041     16.763
     121.91     7.4498     13.401
     121.91     7.4855      7.959
     121.91     7.5237     4.5946
     121.91     7.5694     3.3092
     121.91     7.6201     3.5828
     131.69     6.5324     18.525
     131.69     6.5883     16.927
     131.69     6.6264     14.248
     131.69     6.6569     13.988
     131.69     6.6949      13.46
     131.69     6.7356     12.933
     131.69      6.766      12.94
     131.69     6.8041     13.488
     131.69     6.8497     14.306
     131.69     6.8802     16.195
     131.69     6.9131     18.085
     131.69     6.9487     15.944
     131.69     6.9767      11.92
     131.69     7.0198     12.199
     131.69     7.0628     19.199
     131.69     7.1008     25.122
     131.69     7.1465     23.521
     131.69     7.1845     24.606
     131.69     7.2252     20.854
     131.69     7.2661     10.381
     131.69     7.3143     9.3185
     131.69     7.3574     13.899
     131.69     7.3953     19.285
     131.69     7.4359     21.445
     131.69      7.525     9.1039
     131.69     7.5656     7.7704
     131.69     7.6036     11.543
     131.69      7.657     8.8691
     141.42     6.5003     28.339
     141.42     6.5258     25.196
     141.42     6.5614     21.005
     141.42     6.5843     16.287
     141.42     6.6275      14.46
     141.42      6.658     13.155
     141.42     6.6935     15.263
     141.42     6.7265     16.321
     141.42     6.7671     16.592
     141.42     6.8026     16.601
     141.42     6.8432     17.923
     141.42     6.9141     26.599
     141.42     6.9473     16.897
     141.42     6.9803     13.756
     141.42     7.0159     14.552
     141.42     7.0664     23.224
     141.42     7.1044     28.481
     141.42       7.14     26.128
     141.42     7.1806       24.3
     141.42     7.2213     18.799
     141.42     7.2646     12.773
     141.42     7.3027     14.356
     141.42     7.3431     20.664
     141.42     7.3811      23.56
     141.42     7.4191     26.456
     141.42     7.4649     23.055
     141.42     7.4981     14.665
     141.42     7.5489     11.265
     141.42     7.5944     21.773
     141.42     7.6349     26.769
      151.1      6.499     24.603
      151.1     6.5245      18.36
      151.1     6.5652     13.422
      151.1     6.5983     11.867
      151.1     6.6566       11.1
      151.1     6.6972     13.973
      151.1      6.725     16.844
      151.1     6.7657     16.333
      151.1     6.7987     14.778
      151.1     6.8342     14.786
      151.1     6.8722     21.304
      151.1        6.9     25.998
      151.1     6.9408     17.935
      151.1     6.9713     13.516
      151.1     7.0094     13.264
      151.1     7.0523     24.991
      151.1     7.0902     33.333
      151.1     7.1308     33.863
      151.1     7.1715     29.706
      151.1     7.2096     25.549
      151.1     7.2453     17.224
      151.1      7.291     16.975
      151.1      7.344     30.787
      151.1     7.3769     36.263
      151.1     7.4227     31.326
      151.1     7.5067     20.149
      151.1       7.55     13.649
      151.1     7.5952     32.928
     160.75     6.5052     28.415
     160.75     6.5334     17.937
     160.75     6.5715      15.39
     160.75     6.6046     12.842
     160.75     6.6376     12.084
     160.75     6.6706      11.07
     160.75     6.6983     18.494
     160.75     6.7261     24.639
     160.75     6.7438     26.179
     160.75     6.7667     25.418
     160.75     6.7845     21.075
     160.75     6.8328     21.344
     160.75     6.8655     29.536
     160.75     6.9009     36.962
     160.75     6.9368     23.418
     160.75     6.9699     19.335
     160.75     7.0029     18.833
     160.75     7.0862     33.688
     160.75     7.1268     36.257
     160.75     7.1726     32.433
     160.75      7.249     19.923
     160.75     7.2895     24.026
     160.75     7.3321     45.264
     160.75     7.3726      50.39
     160.75     7.4135     38.381
     160.75     7.4417     29.438
     160.75     7.4851     18.453
     160.75     7.5284     12.327
     160.75     7.5734     38.936
ENDDATA            342
ENDSUBENT          349
ENDENTRY             2
