ENTRY            C0755   20240618   20241027   20241027       C239
SUBENT        C0755001   20240618   20241027   20241027       C239
BIB                 11         38
TITLE      Elastic scattering of alpha particles by n15
AUTHOR     (H.Smotrich,K.W.Jones,L.C.McDermott,R.E.Benenson,T.Mo,
           H.R.Weller)
REFERENCE  (J,PR,122,232,1961)   Original Columbia Univ. result.
           #doi:10.1103/physrev.122.232
           (J,NP/A,198,153,1972) Univ. Florida R-matrix analysis.
           #doi:10.1016/0375-9474(72)90777-4
INSTITUTE  (1USACOL,1USAFLA)
FACILITY   (VDG,1USACOL)
SAMPLE     (7-N-15,ENR=0.95) Nitrogen gas sample, 15N
           concentration averaged 95 atom percent. Major
           contaminants were 16O and 14N. The target thicknesses
           were varied in the range from 2 to 4 keV depending on
           the cross section.
DETECTOR   (CSICR) 2-3 mils thick CsI(Tl) crystal mounted on a
           Dumont 6291 photomultiplier tube.
MONITOR    Beam energy calibrated using 7Li(p,n)7Be threshold
           energy.
METHOD     (BCINT,ASPEC) Excitation curves were run at six
           angles in energy steps from 2 to 5 keV and covered
           the energy range from 1.75 to 5.50 MeV. The selection
           of the scattering angles was governed by the
           dependence of the coherent scattering amplitude on
           the orbital angular momentum l. This procedure was
           followed since it is possible to obtain an indication
           of the l value responsible for a particular resonance
           by the disappearance of an anomaly in the excitation
           curve at the scattering angle corresponding to a zero
           of the Legendre polynomial.
ERR-ANALYS (EN-ERR) Approximate uncertainty in energy scale.
HISTORY    (20001201C) VM
           (20130627A) BP: corrections according last EXFOR rules
           and dict. Updated BIB section, digitized fig. 3-6,
           added table resonance data.
           (20240618A) BP: Updated entry, added complementary
                      R-matrix analysis in Sub. 10.
           Subs. 002-007 were merged into a single subentry 002.
           Subs. 003-007 were deleted.
ENDBIB              38
COMMON               2          3
EN-ERR     EN-RSL
PER-CENT   PER-CENT
        0.1        0.1
ENDCOMMON            3
ENDSUBENT           45
SUBENT        C0755002   20240618   20241027   20241027       C239
BIB                  4         15
REACTION   (7-N-15(A,EL)7-N-15,,DA)
STATUS     (CURVE,,H.Smotrich+,J,PR,122,232,1961)
           Figs. 3-6 of J,PR,122,232,1961.
ERR-ANALYS (ERR-T) The average over-all rms error on the
           measured cross sections is estimated at about 6.2%.
           (ERR-S)counting statistics, average 3.0%.
           (ERR-1) geometry, 0.28%.
           (ERR-2) uncertainty in background, average 1.0%.
           (ERR-3,,1.3) maximum angular uncertainty, maximum 1.3%.
           (ERR-4) current integration, 0.7%.
           (ERR-5) gas pressure, average 0.5%.
           (ERR-6,,5.0) target gas impurities, maximum 5.0%.
           (ERR-7,,0.2) maximum error in scattering angle 0.2 deg.
HISTORY    (20130710C) Replaced sigma database data with the
           digitized data, corrected data units and reaction code.
ENDBIB              15
COMMON               6          3
ERR-T      ERR-S      ERR-1      ERR-2      ERR-4      ERR-5
PER-CENT   PER-CENT   PER-CENT   PER-CENT   PER-CENT   PER-CENT
6.2        3.0        0.28       1.0        0.7        0.5
ENDCOMMON            3
DATA                 3       3907
ANG-CM     EN         DATA-CM
ADEG       MEV        MB/SR
       70.0      2.403    685.587
       70.0      2.407    674.249
       70.0      2.414    677.022
       70.0      2.420    671.327
       70.0      2.424    676.951
       70.0      2.426    654.329
       70.0      2.434    675.143
       70.0      2.440    628.792
       70.0      2.445    641.743
       70.0      2.451    651.945
       70.0      2.458    651.897
       70.0      2.462    646.740
       70.0      2.468    641.567
       70.0      2.479    641.486
       70.0      2.485    631.188
       70.0      2.491    641.390
       70.0      2.495    628.495
       70.0      2.497    637.854
       70.0      2.501    635.479
       70.0      2.505    640.141
       70.0      2.510    630.723
       70.0      2.513    616.628
       70.0      2.518    628.319
       70.0      2.523    614.210
       70.0      2.526    635.289
       70.0      2.529    625.885
       70.0      2.533    602.402
       70.0      2.537    614.099
       70.0      2.542    625.790
       70.0      2.544    604.667
       70.0      2.549    616.357
       70.0      2.552    616.327
       70.0      2.555    604.579
       70.0      2.560    602.196
       70.0      2.564    588.095
       70.0      2.570    595.087
       70.0      2.574    585.676
       70.0      2.577    587.992
       70.0      2.580    592.661
       70.0      2.585    592.624
       70.0      2.589    601.976
       70.0      2.592    587.882
       70.0      2.598    587.838
       70.0      2.600    576.096
       70.0      2.605    576.052
       70.0      2.607    561.965
       70.0      2.614    564.259
       70.0      2.615    597.087
       70.0      2.617    613.490
       70.0      2.623    608.756
       70.0      2.627    599.345
       70.0      2.629    587.596
       70.0      2.632    559.429
       70.0      2.636    521.874
       70.0      2.640    521.844
       70.0      2.644    521.815
       70.0      2.647    549.938
       70.0      2.653    549.894
       70.0      2.657    556.893
       70.0      2.661    568.591
       70.0      2.664    559.187
       70.0      2.669    552.114
       70.0      2.673    549.739
       70.0      2.678    552.048
       70.0      2.681    549.673
       70.0      2.685    551.989
       70.0      2.693    547.240
       70.0      2.705    542.461
       70.0      2.718    537.668
       70.0      2.731    528.191
       70.0      2.743    528.095
       70.0      2.754    525.669
       70.0      2.765    530.272
       70.0      2.778    525.486
       70.0      2.791    516.002
       70.0      2.799    518.288
       70.0      2.807    513.539
       70.0      2.813    487.688
       70.0      2.825    480.564
       70.0      2.828    485.233
       70.0      2.835    482.836
       70.0      2.839    508.599
       70.0      2.843    513.260
       70.0      2.847    510.885
       70.0      2.851    515.547
       70.0      2.856    506.128
       70.0      2.861    506.092
       70.0      2.865    501.364
       70.0      2.873    482.542
       70.0      2.878    442.634
       70.0      2.882    447.296
       70.0      2.884    482.462
       70.0      2.885    508.254
       70.0      2.888    536.376
       70.0      2.891    566.844
       70.0      2.894    526.943
       70.0      2.895    552.735
       70.0      2.898    538.641
       70.0      2.902    529.230
       70.0      2.905    522.172
       70.0      2.908    519.805
       70.0      2.913    515.077
       70.0      2.916    505.673
       70.0      2.919    500.953
       70.0      2.923    493.888
       70.0      2.928    491.506
       70.0      2.934    486.771
       70.0      2.938    456.252
       70.0      2.941    425.732
       70.0      2.946    411.623
       70.0      2.947    467.905
       70.0      2.947    491.359
       70.0      2.950    545.281
       70.0      2.951    594.527
       70.0      2.956    603.872
       70.0      2.958    589.785
       70.0      2.961    575.690
       70.0      2.965    566.279
       70.0      2.969    552.178
       70.0      2.974    542.752
       70.0      2.995    528.526
       70.0      3.004    521.416
       70.0      3.015    514.299
       70.0      3.025    516.564
       70.0      3.037    507.094
       70.0      3.048    511.704
       70.0      3.058    488.170
       70.0      3.079    502.081
       70.0      3.090    494.964
       70.0      3.100    471.437
       70.0      3.111    471.349
       70.0      3.122    468.923
       70.0      3.133    459.453
       70.0      3.141    442.977
       70.0      3.150    438.220
       70.0      3.158    421.736
       70.0      3.162    409.980
       70.0      3.168    416.972
       70.0      3.172    402.870
       70.0      3.176    395.805
       70.0      3.179    381.703
       70.0      3.183    386.364
       70.0      3.188    372.255
       70.0      3.195    337.023
       70.0      3.196    355.779
       70.0      3.202    376.843
       70.0      3.202    358.080
       70.0      3.208    362.720
       70.0      3.214    343.913
       70.0      3.220    334.487
       70.0      3.221    306.335
       70.0      3.229    301.578
       70.0      3.231    313.291
       70.0      3.232    346.119
       70.0      3.239    324.959
       70.0      3.246    308.490
       70.0      3.253    313.129
       70.0      3.258    294.322
       70.0      3.262    310.710
       70.0      3.266    291.918
       70.0      3.272    291.874
       70.0      3.279    294.168
       70.0      3.289    272.979
       70.0      3.299    275.251
       70.0      3.309    277.515
       70.0      3.317    268.075
       70.0      3.326    265.664
       70.0      3.334    260.907
       70.0      3.344    258.488
       70.0      3.352    256.084
       70.0      3.361    258.356
       70.0      3.371    255.937
       70.0      3.375    258.253
       70.0      3.379    255.879
       70.0      3.387    258.158
       70.0      3.392    255.776
       70.0      3.398    251.041
       70.0      3.403    255.695
       70.0      3.410    250.946
       70.0      3.421    250.865
       70.0      3.430    255.490
       70.0      3.437    248.395
       70.0      3.448    253.005
       70.0      3.455    257.644
       70.0      3.461    250.564
       70.0      3.470    259.872
       70.0      3.475    252.800
       70.0      3.481    255.101
       70.0      3.492    250.322
       70.0      3.498    254.969
       70.0      3.502    266.666
       70.0      3.506    252.565
       70.0      3.512    254.866
       70.0      3.516    257.182
       70.0      3.520    254.800
       70.0      3.525    233.655
       70.0      3.529    226.589
       70.0      3.533    235.942
       70.0      3.538    242.941
       70.0      3.542    254.639
       70.0      3.546    254.602
       70.0      3.553    263.932
       70.0      3.556    252.183
       70.0      3.562    252.139
       70.0      3.567    252.102
       70.0      3.570    242.692
       70.0      3.576    249.684
       70.0      3.580    242.618
       70.0      3.584    228.517
       70.0      3.589    228.480
       70.0      3.594    256.588
       70.0      3.597    287.048
       70.0      3.600    279.990
       70.0      3.605    275.263
       70.0      3.609    268.197
       70.0      3.613    261.132
       70.0      3.618    254.059
       70.0      3.622    249.332
       70.0      3.627    246.949
       70.0      3.632    232.840
       70.0      3.635    218.746
       70.0      3.642    228.076
       70.0      3.646    199.902
       70.0      3.650    190.484
       70.0      3.655    174.030
       70.0      3.660    190.411
       70.0      3.666    197.403
       70.0      3.672    216.122
       70.0      3.676    225.467
       70.0      3.682    241.840
       70.0      3.685    253.545
       70.0      3.691    260.538
       70.0      3.696    267.537
       70.0      3.701    276.882
       70.0      3.704    283.889
       70.0      3.709    281.507
       70.0      3.716    283.801
       70.0      3.725    283.735
       70.0      3.731    293.065
       70.0      3.739    290.661
       70.0      3.743    307.049
       70.0      3.746    299.991
       70.0      3.751    295.263
       70.0      3.756    299.910
       70.0      3.766    297.491
       70.0      3.770    311.534
       70.0      3.776    295.073
       70.0      3.790    285.581
       70.0      3.810    264.685
       70.0      3.831    232.030
       70.0      3.840    217.285
       70.0      3.849    197.284
       70.0      3.859    181.488
       70.0      3.869    165.688
       70.0      3.877    148.843
       70.0      3.882    150.929
       70.0      3.888    145.653
       70.0      3.898    125.649
       70.0      3.906    118.268
       70.0      3.917    117.179
       70.0      3.927    118.197
       70.0      3.935    126.578
       70.0      3.946    182.251
       70.0      3.950    199.055
       70.0      3.956    219.005
       70.0      3.959    211.637
       70.0      3.963    217.930
       70.0      3.971    209.498
       70.0      3.974    213.692
       70.0      3.981    210.515
       70.0      3.989    193.671
       70.0      3.999    200.994
       70.0      4.003    187.317
       70.0      4.010    198.858
       70.0      4.020    183.058
       70.0      4.029    189.334
       70.0      4.039    174.585
       70.0      4.048    176.660
       70.0      4.053    166.133
       70.0      4.058    175.576
       70.0      4.069    167.130
       70.0      4.078    160.793
       70.0      4.088    151.303
       70.0      4.097    149.170
       70.0      4.103    141.792
       70.0      4.109    147.027
       70.0      4.113    145.963
       70.0      4.118    150.150
       70.0      4.122    134.371
       70.0      4.127    131.200
       70.0      4.133    122.775
       70.0      4.136    142.735
       70.0      4.143    147.967
       70.0      4.147    130.085
       70.0      4.153    122.707
       70.0      4.167    116.353
       70.0      4.177    105.812
       70.0      4.188    104.724
       70.0      4.201     98.374
       70.0      4.205    109.922
       70.0      4.219    122.491
       70.0      4.226    141.386
       70.0      4.236    159.221
       70.0      4.251    169.684
       70.0      4.265    193.811
       70.0      4.277    211.642
       70.0      4.287    214.761
       70.0      4.295    224.194
       70.0      4.302    218.915
       70.0      4.308    216.792
       70.0      4.311    213.632
       70.0      4.316    213.616
       70.0      4.323    208.336
       70.0      4.330    203.057
       70.0      4.338    194.622
       70.0      4.346    192.493
       70.0      4.354    191.418
       70.0      4.357    180.897
       70.0      4.368    176.655
       70.0      4.377    164.012
       70.0      4.388    158.720
       70.0      4.398    146.076
       70.0      4.409    137.630
       70.0      4.418    139.702
       70.0      4.429    126.001
       70.0      4.439    117.562
       70.0      4.452    110.160
       70.0      4.459    118.545
       70.0      4.467    114.314
       70.0      4.470    126.917
       70.0      4.481    137.393
       70.0      4.487    147.884
       70.0      4.491    167.841
       70.0      4.495    181.491
       70.0      4.500    195.138
       70.0      4.506    217.194
       70.0      4.510    222.435
       70.0      4.516    231.875
       70.0      4.520    236.065
       70.0      4.527    239.195
       70.0      4.531    233.926
       70.0      4.538    228.650
       70.0      4.543    226.531
       70.0      4.549    229.664
       70.0      4.553    230.702
       70.0      4.559    230.681
       70.0      4.564    226.460
       70.0      4.569    239.056
       70.0      4.574    245.349
       70.0      4.578    254.795
       70.0      4.582    276.854
       70.0      4.589    283.137
       70.0      4.593    294.685
       70.0      4.598    287.311
       70.0      4.603    288.345
       70.0      4.608    287.280
       70.0      4.609    294.634
       70.0      4.614    283.056
       70.0      4.620    291.444
       70.0      4.625    284.069
       70.0      4.630    280.899
       70.0      4.635    282.985
       70.0      4.640    281.917
       70.0      4.647    279.794
       70.0      4.652    285.032
       70.0      4.656    276.610
       70.0      4.662    277.641
       70.0      4.666    272.372
       70.0      4.672    270.250
       70.0      4.678    270.229
       70.0      4.682    258.654
       70.0      4.687    244.973
       70.0      4.694    226.034
       70.0      4.698    213.407
       70.0      4.703    209.186
       70.0      4.708    220.731
       70.0      4.709    227.034
       70.0      4.714    233.324
       70.0      4.715    225.963
       70.0      4.717    215.445
       70.0      4.724    200.707
       70.0      4.728    208.050
       70.0      4.730    192.278
       70.0      4.732    180.709
       70.0      4.736    175.444
       70.0      4.742    164.913
       70.0      4.747    157.538
       70.0      4.752    151.215
       70.0      4.758    150.143
       70.0      4.761    137.520
       70.0      4.767    136.449
       70.0      4.773    128.020
       70.0      4.779    140.616
       70.0      4.784    155.314
       70.0      4.789    158.450
       70.0      4.794    155.280
       70.0      4.795    154.908
       70.0      4.800    149.475
       70.0      4.804    149.466
       70.0      4.810    147.045
       70.0      4.815    144.022
       70.0      4.820    144.615
       70.0      4.826    144.001
       70.0      4.832    148.207
       70.0      4.843    146.981
       70.0      4.854    137.318
       70.0      4.859    148.154
       70.0      4.865    138.501
       70.0      4.875    137.880
       70.0      4.885    134.243
       70.0      4.896    134.222
       70.0      4.907    127.573
       70.0      4.918    131.166
       70.0      4.928    129.339
       70.0      4.939    123.894
       70.0      4.950    123.873
       70.0      4.962    128.069
       70.0      4.972    120.818
       70.0      4.983    123.206
       70.0      4.995    118.966
       70.0      5.004    114.730
       70.0      5.015    114.105
       70.0      5.026    111.070
       70.0      5.037    107.434
       70.0      5.045    111.636
       70.0      5.056    107.397
       70.0      5.068    107.374
       70.0      5.077    116.393
       70.0      5.081    112.771
       70.0      5.092    120.583
       70.0      5.103    117.549
       70.0      5.114    146.451
       70.0      5.124    160.290
       70.0      5.136    169.908
       70.0      5.147    187.361
       70.0      5.157    172.880
       70.0      5.168    172.255
       70.0      5.180    154.757
       70.0      5.195    143.883
       70.0      5.202    130.612
       70.0      5.208    126.985
       70.0      5.214    117.935
       70.0      5.219    114.309
       70.0      5.224     96.221
       70.0      5.230     84.159
       70.0      5.235     83.546
       70.0      5.242     83.533
       70.0      5.247     73.279
       70.0      5.253     84.114
       70.0      5.257     99.772
       70.0      5.263    113.017
       70.0      5.269    133.494
       70.0      5.276    137.699
       70.0      5.280    149.138
       70.0      5.286    181.063
       70.0      5.292    188.282
       70.0      5.297    159.951
       70.0      5.303    151.504
       70.0      5.309    145.467
       70.0      5.314    144.854
       70.0      5.318    137.615
       70.0      5.324    137.002
       70.0      5.329    138.799
       70.0      5.336    142.402
       70.0      5.342    135.158
       70.0      5.348    130.928
       70.0      5.352    122.485
       70.0      5.357    127.295
       70.0      5.364    126.077
       70.0      5.370    123.655
       70.0      5.375    129.672
       70.0      5.379    123.034
       70.0      5.385    122.420
       70.0      5.391    121.203
       70.0      5.397    125.409
       70.0      5.409    120.566
       70.0      5.420    116.327
       70.0      5.426    123.546
       70.0      5.436    122.321
       70.0      5.448    117.477
       70.0      5.459    116.852
       70.0      5.469    112.614
       70.0      5.481    115.604
       90.0      1.717    581.294
       90.0      1.723    581.329
       90.0      1.731    576.981
       90.0      1.738    572.877
       90.0      1.744    568.774
       90.0      1.751    568.814
       90.0      1.756    559.532
       90.0      1.767    551.319
       90.0      1.771    533.753
       90.0      1.781    543.118
       90.0      1.785    527.621
       90.0      1.793    529.737
       90.0      1.796    521.478
       90.0      1.807    520.507
       90.0      1.820    511.271
       90.0      1.832    513.404
       90.0      1.835    501.006
       90.0      1.845    498.995
       90.0      1.852    492.828
       90.0      1.859    500.112
       90.0      1.865    490.835
       90.0      1.874    497.089
       90.0      1.880    506.436
       90.0      1.881    489.349
       90.0      1.886    492.690
       90.0      1.888    481.103
       90.0      1.891    467.039
       90.0      1.895    466.234
       90.0      1.899    477.855
       90.0      1.905    465.462
       90.0      1.913    468.822
       90.0      1.916    462.214
       90.0      1.917    456.420
       90.0      1.922    456.448
       90.0      1.924    453.148
       90.0      1.929    444.064
       90.0      1.933    460.655
       90.0      1.939    438.322
       90.0      1.953    439.229
       90.0      1.965    426.874
       90.0      1.980    423.645
       90.0      1.992    426.200
       90.0      2.007    427.940
       90.0      2.019    418.070
       90.0      2.033    401.582
       90.0      2.047    395.034
       90.0      2.061    384.345
       90.0      2.074    380.278
       90.0      2.087    379.524
       90.0      2.101    366.350
       90.0      2.120    378.054
       90.0      2.133    359.905
       90.0      2.148    359.160
       90.0      2.161    353.436
       90.0      2.175    363.460
       90.0      2.189    349.458
       90.0      2.203    342.082
       90.0      2.218    339.681
       90.0      2.231    334.785
       90.0      2.246    329.899
       90.0      2.261    315.901
       90.0      2.274    315.980
       90.0      2.290    319.382
       90.0      2.303    308.688
       90.0      2.319    299.665
       90.0      2.333    298.920
       90.0      2.346    299.823
       90.0      2.360    294.104
       90.0      2.376    295.025
       90.0      2.412    283.634
       90.0      2.420    262.967
       90.0      2.428    268.812
       90.0      2.434    278.785
       90.0      2.442    278.003
       90.0      2.450    287.162
       90.0      2.458    270.641
       90.0      2.465    260.738
       90.0      2.473    254.158
       90.0      2.482    247.971
       90.0      2.490    251.121
       90.0      2.498    255.053
       90.0      2.501    260.508
       90.0      2.505    262.083
       90.0      2.510    263.663
       90.0      2.513    254.359
       90.0      2.518    258.269
       90.0      2.521    252.077
       90.0      2.525    237.341
       90.0      2.528    245.126
       90.0      2.536    245.946
       90.0      2.544    241.334
       90.0      2.549    239.030
       90.0      2.554    256.145
       90.0      2.560    231.324
       90.0      2.565    238.345
       90.0      2.572    245.375
       90.0      2.579    236.094
       90.0      2.586    233.803
       90.0      2.593    232.293
       90.0      2.594    230.482
       90.0      2.599    235.939
       90.0      2.602    228.616
       90.0      2.606    219.466
       90.0      2.609    222.188
       90.0      2.612    217.609
       90.0      2.617    205.716
       90.0      2.620    192.914
       90.0      2.625    172.802
       90.0      2.629    166.387
       90.0      2.636    218.408
       90.0      2.638    242.142
       90.0      2.645    248.499
       90.0      2.649    259.440
       90.0      2.651    242.989
       90.0      2.656    248.446
       90.0      2.659    242.041
       90.0      2.665    240.184
       90.0      2.672    238.322
       90.0      2.681    243.762
       90.0      2.688    237.334
       90.0      2.696    225.423
       90.0      2.703    225.388
       90.0      2.712    234.480
       90.0      2.714    224.422
       90.0      2.722    232.606
       90.0      2.729    231.657
       90.0      2.737    216.094
       90.0      2.745    227.012
       90.0      2.753    212.366
       90.0      2.760    215.984
       90.0      2.769    216.853
       90.0      2.774    217.744
       90.0      2.778    217.722
       90.0      2.781    215.882
       90.0      2.785    213.121
       90.0      2.790    213.099
       90.0      2.795    218.556
       90.0      2.796    210.329
       90.0      2.802    203.910
       90.0      2.803    197.513
       90.0      2.808    202.053
       90.0      2.812    209.341
       90.0      2.815    208.410
       90.0      2.820    209.301
       90.0      2.823    212.027
       90.0      2.828    212.001
       90.0      2.831    217.467
       90.0      2.834    226.586
       90.0      2.837    232.960
       90.0      2.840    221.989
       90.0      2.841    213.766
       90.0      2.842    211.022
       90.0      2.845    203.699
       90.0      2.847    199.124
       90.0      2.853    196.358
       90.0      2.856    199.993
       90.0      2.862    191.748
       90.0      2.869    199.932
       90.0      2.873    194.435
       90.0      2.880    193.487
       90.0      2.882    205.349
       90.0      2.886    217.203
       90.0      2.891    208.958
       90.0      2.891    218.090
       90.0      2.894    202.553
       90.0      2.895    194.330
       90.0      2.900    184.258
       90.0      2.905    187.889
       90.0      2.911    186.945
       90.0      2.915    182.361
       90.0      2.924    177.751
       90.0      2.928    184.122
       90.0      2.934    179.529
       90.0      2.937    192.301
       90.0      2.940    197.762
       90.0      2.942    207.799
       90.0      2.946    203.215
       90.0      2.948    191.331
       90.0      2.952    184.007
       90.0      2.952    194.966
       90.0      2.957    182.159
       90.0      2.958    177.584
       90.0      2.962    179.393
       90.0      2.963    170.257
       90.0      2.965    175.727
       90.0      2.968    172.974
       90.0      2.974    172.031
       90.0      2.974    176.596
       90.0      2.978    166.534
       90.0      2.982    162.859
       90.0      2.986    171.973
       90.0      2.990    169.212
       90.0      2.995    166.450
       90.0      3.001    165.506
       90.0      3.006    172.790
       90.0      3.010    157.244
       90.0      3.013    170.015
       90.0      3.016    161.783
       90.0      3.019    164.505
       90.0      3.019    155.373
       90.0      3.024    155.351
       90.0      3.030    154.407
       90.0      3.036    160.773
       90.0      3.039    151.624
       90.0      3.041    156.181
       90.0      3.044    150.689
       90.0      3.049    148.836
       90.0      3.053    141.513
       90.0      3.057    141.495
       90.0      3.061    136.907
       90.0      3.066    136.885
       90.0      3.070    140.516
       90.0      3.078    128.610
       90.0      3.083    121.278
       90.0      3.088    121.256
       90.0      3.092    124.886
       90.0      3.100    117.541
       90.0      3.106    117.515
       90.0      3.110    117.497
       90.0      3.114    111.083
       90.0      3.120    116.536
       90.0      3.128     93.667
       90.0      3.131    100.041
       90.0      3.137     96.362
       90.0      3.139     91.783
       90.0      3.144     79.890
       90.0      3.148     87.178
       90.0      3.153     90.804
       90.0      3.157     85.307
       90.0      3.161     81.633
       90.0      3.167     79.780
       90.0      3.169     72.461
       90.0      3.175     71.522
       90.0      3.179     72.417
       90.0      3.182     69.660
       90.0      3.183     76.048
       90.0      3.190     73.278
       90.0      3.193     67.781
       90.0      3.200     64.093
       90.0      3.204     54.944
       90.0      3.210     56.744
       90.0      3.214     64.940
       90.0      3.217     54.882
       90.0      3.223     55.764
       90.0      3.227     58.486
       90.0      3.231     59.378
       90.0      3.239     55.690
       90.0      3.249     53.815
       90.0      3.251     58.368
       90.0      3.258     58.337
       90.0      3.262     62.885
       90.0      3.271     64.668
       90.0      3.280     58.231
       90.0      3.282     64.615
       90.0      3.288     64.584
       90.0      3.293     64.558
       90.0      3.298     73.667
       90.0      3.302     69.997
       90.0      3.306     67.236
       90.0      3.312     67.209
       90.0      3.318     71.744
       90.0      3.325     72.627
       90.0      3.333     76.240
       90.0      3.342     71.630
       90.0      3.350     80.722
       90.0      3.359     83.418
       90.0      3.368     79.721
       90.0      3.377     80.590
       90.0      3.387     83.286
       90.0      3.397     80.498
       90.0      3.406     83.194
       90.0      3.413     86.811
       90.0      3.423     92.242
       90.0      3.430     81.248
       90.0      3.440     85.766
       90.0      3.450     89.375
       90.0      3.458     80.203
       90.0      3.467     85.638
       90.0      3.478     81.020
       90.0      3.490     83.702
       90.0      3.495     89.155
       90.0      3.503     90.942
       90.0      3.508     82.701
       90.0      3.513     76.282
       90.0      3.517     66.220
       90.0      3.521     75.330
       90.0      3.526     96.311
       90.0      3.530     99.033
       90.0      3.536     85.304
       90.0      3.544     93.483
       90.0      3.552     90.708
       90.0      3.560     85.190
       90.0      3.567     87.894
       90.0      3.572     75.088
       90.0      3.576     86.024
       90.0      3.582     77.779
       90.0      3.590     86.871
       90.0      3.593     79.552
       90.0      3.595     74.060
       90.0      3.601     70.381
       90.0      3.605     63.054
       90.0      3.609     56.644
       90.0      3.616     54.782
       90.0      3.620     50.199
       90.0      3.625     45.606
       90.0      3.629     35.544
       90.0      3.634     38.257
       90.0      3.639     37.322
       90.0      3.644     57.390
       90.0      3.647     68.330
       90.0      3.653    100.265
       90.0      3.656    123.082
       90.0      3.660    141.323
       90.0      3.666    148.602
       90.0      3.674    151.302
       90.0      3.681    150.358
       90.0      3.683    138.474
       90.0      3.689    143.013
       90.0      3.691    131.129
       90.0      3.696    114.670
       90.0      3.704    121.022
       90.0      3.708    129.223
       90.0      3.711    137.424
       90.0      3.716    131.010
       90.0      3.721    135.554
       90.0      3.726    139.180
       90.0      3.730    117.242
       90.0      3.737    113.558
       90.0      3.742    121.751
       90.0      3.743    108.049
       90.0      3.750    108.931
       90.0      3.754    102.517
       90.0      3.759     96.102
       90.0      3.763     93.341
       90.0      3.770     96.050
       90.0      3.771     83.256
       90.0      3.777     81.404
       90.0      3.781     77.729
       90.0      3.787     80.442
       90.0      3.792     78.589
       90.0      3.795     70.357
       90.0      3.803     61.032
       90.0      3.809     55.751
       90.0      3.817     51.519
       90.0      3.821     48.348
       90.0      3.827     44.119
       90.0      3.832     36.736
       90.0      3.837     47.244
       90.0      3.841     33.550
       90.0      3.846     37.743
       90.0      3.852     38.780
       90.0      3.856     39.819
       90.0      3.861     39.803
       90.0      3.865     40.842
       90.0      3.869     41.882
       90.0      3.875     43.967
       90.0      3.879     47.111
       90.0      3.883     47.098
       90.0      3.888     47.085
       90.0      3.893     47.069
       90.0      3.897     52.318
       90.0      3.903     57.560
       90.0      3.907     53.338
       90.0      3.912     58.584
       90.0      3.916     69.095
       90.0      3.920     76.448
       90.0      3.928     76.426
       90.0      3.933     94.300
       90.0      3.937     90.078
       90.0      3.943     85.848
       90.0      3.946     73.210
       90.0      3.951     71.089
       90.0      3.955     64.762
       90.0      3.961     61.588
       90.0      3.966     57.362
       90.0      3.970     52.088
       90.0      3.976     52.068
       90.0      3.980     53.107
       90.0      3.984     55.199
       90.0      3.990     56.232
       90.0      3.996     54.108
       90.0      4.001     49.885
       90.0      4.004     44.614
       90.0      4.009     45.650
       90.0      4.014     50.896
       90.0      4.020     57.190
       90.0      4.023     54.024
       90.0      4.029     51.899
       90.0      4.035     58.197
       90.0      4.038     49.769
       90.0      4.044     55.011
       90.0      4.049     52.890
       90.0      4.054     56.031
       90.0      4.059     49.700
       90.0      4.063     57.054
       90.0      4.067     49.674
       90.0      4.074     47.550
       90.0      4.078     52.799
       90.0      4.082     52.786
       90.0      4.088     48.557
       90.0      4.093     54.855
       90.0      4.098     49.577
       90.0      4.101     54.829
       90.0      4.106     53.761
       90.0      4.114     49.528
       90.0      4.116     58.994
       90.0      4.120     56.876
       90.0      4.126     57.909
       90.0      4.131     59.997
       90.0      4.136     56.824
       90.0      4.141     59.965
       90.0      4.147     58.896
       90.0      4.152     53.618
       90.0      4.156     71.496
       90.0      4.164     65.155
       90.0      4.171     72.499
       90.0      4.177     70.375
       90.0      4.182     70.362
       90.0      4.187     75.608
       90.0      4.191     78.752
       90.0      4.197     81.890
       90.0      4.201     85.034
       90.0      4.206     93.437
       90.0      4.211     92.368
       90.0      4.222     94.441
       90.0      4.232     82.832
       90.0      4.243     88.058
       90.0      4.252     90.134
       90.0      4.262    101.681
       90.0      4.272    113.225
       90.0      4.282    118.454
       90.0      4.292     93.168
       90.0      4.302     86.821
       90.0      4.313     78.366
       90.0      4.321     76.235
       90.0      4.331     74.101
       90.0      4.343     69.853
       90.0      4.352     69.824
       90.0      4.361     69.794
       90.0      4.372     63.448
       90.0      4.383     58.150
       90.0      4.392     57.068
       90.0      4.403     62.295
       90.0      4.413     64.370
       90.0      4.422     59.079
       90.0      4.432     64.308
       90.0      4.445     64.270
       90.0      4.454     70.555
       90.0      4.464     72.627
       90.0      4.470     70.503
       90.0      4.475     71.539
       90.0      4.480     64.159
       90.0      4.484     66.251
       90.0      4.489     55.711
       90.0      4.495     59.901
       90.0      4.499     47.259
       90.0      4.504     46.191
       90.0      4.509     44.070
       90.0      4.515     38.788
       90.0      4.522     29.297
       90.0      4.526     25.075
       90.0      4.537     22.934
       90.0      4.547     20.797
       90.0      4.556     19.715
       90.0      4.563     29.167
       90.0      4.567     38.626
       90.0      4.574     42.813
       90.0      4.577     51.222
       90.0      4.583     49.098
       90.0      4.587     53.295
       90.0      4.594     51.170
       90.0      4.598     49.053
       90.0      4.605     44.820
       90.0      4.609     36.388
       90.0      4.619     39.513
       90.0      4.630     40.533
       90.0      4.639     32.084
       90.0      4.646     33.114
       90.0      4.652     27.833
       90.0      4.656     32.029
       90.0      4.661     28.856
       90.0      4.668     25.679
       90.0      4.672     20.404
       90.0      4.678     15.123
       90.0      4.682     15.110
       90.0      4.687      7.727
       90.0      4.692      5.606
       90.0      4.698      5.586
       90.0      4.704      7.672
       90.0      4.709     13.973
       90.0      4.715      8.692
       90.0      4.720      6.571
       90.0      4.725      4.450
       90.0      4.731      4.430
       90.0      4.735      3.365
       90.0      4.740      6.506
       90.0      4.747      3.329
       90.0      4.753      5.414
       90.0      4.758      5.398
       90.0      4.762      8.542
       90.0      4.769      9.572
       90.0      4.771     11.670
       90.0      4.776     20.073
       90.0      4.782     30.581
       90.0      4.787     13.727
       90.0      4.792     12.658
       90.0      4.798      9.481
       90.0      4.804     10.514
       90.0      4.808     10.763
       90.0      4.813     16.290
       90.0      4.819     13.526
       90.0      4.824     13.526
       90.0      4.829     13.526
       90.0      4.835     12.421
       90.0      4.840     13.526
       90.0      4.847     12.421
       90.0      4.851     12.974
       90.0      4.856     11.315
       90.0      4.862     12.974
       90.0      4.866     11.315
       90.0      4.873     13.526
       90.0      4.878     11.315
       90.0      4.883     11.315
       90.0      4.888     11.868
       90.0      4.895     13.526
       90.0      4.900     13.526
       90.0      4.906     12.421
       90.0      4.911     12.974
       90.0      4.916     14.632
       90.0      4.922     11.868
       90.0      4.926     13.526
       90.0      4.933     11.868
       90.0      4.936     12.974
       90.0      4.943     15.185
       90.0      4.949     13.526
       90.0      4.954     12.974
       90.0      4.960     13.526
       90.0      4.964     14.632
       90.0      4.971     13.526
       90.0      4.975     14.632
       90.0      4.981     15.185
       90.0      4.987     17.396
       90.0      4.992     15.737
       90.0      4.998     19.054
       90.0      5.003     18.501
       90.0      5.008     19.054
       90.0      5.013     22.371
       90.0      5.019     26.793
       90.0      5.025     26.793
       90.0      5.029     21.818
       90.0      5.035     29.004
       90.0      5.041     27.898
       90.0      5.045     31.767
       90.0      5.051     30.662
       90.0      5.057     32.320
       90.0      5.062     36.189
       90.0      5.068     43.375
       90.0      5.073     36.189
       90.0      5.079     40.059
       90.0      5.084     45.586
       90.0      5.090     42.270
       90.0      5.094     43.928
       90.0      5.102     52.219
       90.0      5.106     60.511
       90.0      5.112     60.511
       90.0      5.117     63.827
       90.0      5.123     61.616
       90.0      5.127     57.194
       90.0      5.132     59.958
       90.0      5.137     56.089
       90.0      5.144     52.219
       90.0      5.150     50.561
       90.0      5.156     43.928
       90.0      5.161     39.506
       90.0      5.166     30.109
       90.0      5.171     27.345
       90.0      5.178     22.371
       90.0      5.184     18.501
       90.0      5.189     16.843
       90.0      5.194     11.868
       90.0      5.198     12.421
       90.0      5.205      9.657
       90.0      5.210     13.526
       90.0      5.216      6.341
       90.0      5.221      8.552
       90.0      5.226     12.974
       90.0      5.232     13.526
       90.0      5.238     14.632
       90.0      5.243     22.371
       90.0      5.248     24.029
       90.0      5.254     36.189
       90.0      5.255     43.928
       90.0      5.259     47.245
       90.0      5.266     47.797
       90.0      5.272     45.034
       90.0      5.277     37.848
       90.0      5.282     32.320
       90.0      5.288     26.793
       90.0      5.293     35.637
       90.0      5.300     30.109
       90.0      5.306     30.662
       90.0      5.311     26.240
       90.0      5.315     27.345
       90.0      5.320     22.371
       90.0      5.326     26.793
       90.0      5.331     24.029
       90.0      5.337     26.793
       90.0      5.342     24.582
       90.0      5.348     21.818
       90.0      5.354     26.793
       90.0      5.357     24.582
       90.0      5.364     26.793
       90.0      5.371     24.582
       90.0      5.376     19.607
       90.0      5.381     23.476
       90.0      5.385     25.134
       90.0      5.393     25.687
       90.0      5.399     27.345
       90.0      5.404     27.898
       90.0      5.410     28.451
       90.0      5.416     28.451
      125.3      1.721    157.216
      125.3      1.733    150.000
      125.3      1.746    153.093
      125.3      1.753    150.515
      125.3      1.760    149.485
      125.3      1.771    141.753
      125.3      1.785    142.268
      125.3      1.797    141.753
      125.3      1.810    138.144
      125.3      1.817    136.598
      125.3      1.822    134.021
      125.3      1.836    130.412
      125.3      1.850    126.289
      125.3      1.854    127.835
      125.3      1.859    127.835
      125.3      1.862    118.557
      125.3      1.867    118.041
      125.3      1.871    100.000
      125.3      1.875     89.691
      125.3      1.876     78.351
      125.3      1.881     85.567
      125.3      1.882    107.216
      125.3      1.888    111.856
      125.3      1.894    123.196
      125.3      1.904    126.804
      125.3      1.907    122.680
      125.3      1.911    124.227
      125.3      1.913    129.381
      125.3      1.914    124.742
      125.3      1.926    124.227
      125.3      1.940    124.227
      125.3      1.953    114.948
      125.3      1.966    114.433
      125.3      1.979    111.340
      125.3      2.012    111.340
      125.3      2.047    101.031
      125.3      2.081     97.938
      125.3      2.120     93.299
      125.3      2.155     94.330
      125.3      2.225     80.412
      125.3      2.261     84.536
      125.3      2.295     78.866
      125.3      2.333     76.804
      125.3      2.367     73.711
      125.3      2.377     79.381
      125.3      2.390     67.010
      125.3      2.396     67.010
      125.3      2.401     71.134
      125.3      2.405     73.196
      125.3      2.409     62.371
      125.3      2.412     69.072
      125.3      2.416     71.649
      125.3      2.421     69.072
      125.3      2.422     62.371
      125.3      2.429     65.464
      125.3      2.430     70.619
      125.3      2.435     69.588
      125.3      2.439     69.072
      125.3      2.443     68.041
      125.3      2.447     68.041
      125.3      2.450     63.402
      125.3      2.454     69.072
      125.3      2.460     63.918
      125.3      2.464     69.072
      125.3      2.472     69.588
      125.3      2.478     67.010
      125.3      2.480     63.918
      125.3      2.486     68.041
      125.3      2.494     63.918
      125.3      2.504     63.918
      125.3      2.510     62.371
      125.3      2.518     61.856
      125.3      2.528     60.825
      125.3      2.537     60.309
      125.3      2.548     58.763
      125.3      2.558     59.794
      125.3      2.566     58.247
      125.3      2.577     56.701
      125.3      2.587     56.186
      125.3      2.595     55.155
      125.3      2.599     92.186
      125.3      2.603     87.884
      125.3      2.607     90.438
      125.3      2.612     74.131
      125.3      2.615     85.265
      125.3      2.620     89.531
      125.3      2.621     98.096
      125.3      2.627     99.791
      125.3      2.630    127.208
      125.3      2.635    124.616
      125.3      2.641    110.020
      125.3      2.649    103.129
      125.3      2.650     90.268
      125.3      2.654     87.683
      125.3      2.658     82.523
      125.3      2.663     92.789
      125.3      2.666     77.346
      125.3      2.670     83.330
      125.3      2.675     90.171
      125.3      2.679     80.725
      125.3      2.682     80.711
      125.3      2.688     88.403
      125.3      2.693     88.382
      125.3      2.698     86.648
      125.3      2.703     89.199
      125.3      2.707     83.186
      125.3      2.712     80.594
      125.3      2.716     76.291
      125.3      2.724     74.543
      125.3      2.725     82.255
      125.3      2.729     68.523
      125.3      2.730     77.949
      125.3      2.733     80.510
      125.3      2.737     76.207
      125.3      2.742     74.473
      125.3      2.747     79.596
      125.3      2.750     72.728
      125.3      2.754     74.426
      125.3      2.759     75.263
      125.3      2.763     70.103
      125.3      2.767     75.230
      125.3      2.771     70.930
      125.3      2.774     74.346
      125.3      2.778     77.758
      125.3      2.782     63.168
      125.3      2.788     70.006
      125.3      2.791     70.850
      125.3      2.794     75.122
      125.3      2.797     66.540
      125.3      2.803     67.374
      125.3      2.809     69.922
      125.3      2.810     64.772
      125.3      2.816     65.606
      125.3      2.820     61.307
      125.3      2.823     57.864
      125.3      2.828     56.987
      125.3      2.834     41.534
      125.3      2.836     52.668
      125.3      2.842     57.791
      125.3      2.845     64.635
      125.3      2.849     60.332
      125.3      2.853     62.887
      125.3      2.858     58.584
      125.3      2.862     61.996
      125.3      2.866     57.694
      125.3      2.870     62.820
      125.3      2.874     57.664
      125.3      2.879     48.211
      125.3      2.884     43.905
      125.3      2.888     47.320
      125.3      2.892     56.733
      125.3      2.897     56.713
      125.3      2.901     59.271
      125.3      2.903     56.689
      125.3      2.908     54.955
      125.3      2.912     58.370
      125.3      2.916     52.353
      125.3      2.921     53.190
      125.3      2.928     46.306
      125.3      2.930     53.153
      125.3      2.933     44.571
      125.3      2.938     43.690
      125.3      2.939     35.972
      125.3      2.944     35.098
      125.3      2.945     28.234
      125.3      2.949     38.507
      125.3      2.952     64.210
      125.3      2.956     52.192
      125.3      2.961     58.172
      125.3      2.968     52.145
      125.3      2.972     47.842
      125.3      2.976     45.254
      125.3      2.983     51.228
      125.3      2.986     41.788
      125.3      2.989     44.347
      125.3      2.994     42.612
      125.3      2.999     41.735
      125.3      3.004     42.572
      125.3      3.010     38.262
      125.3      3.019     35.654
      125.3      3.027     35.624
      125.3      3.037     39.012
      125.3      3.046     32.118
      125.3      3.052     34.666
      125.3      3.062     32.915
      125.3      3.071     27.735
      125.3      3.078     25.133
      125.3      3.088     26.811
      125.3      3.096     25.063
      125.3      3.105     24.172
      125.3      3.112     30.142
      125.3      3.122     27.531
      125.3      3.132     28.351
      125.3      3.140     25.746
      125.3      3.148     30.859
      125.3      3.158     31.676
      125.3      3.162     35.945
      125.3      3.165     43.650
      125.3      3.169     38.490
      125.3      3.175     35.038
      125.3      3.178     41.882
      125.3      3.184     41.001
      125.3      3.186     34.134
      125.3      3.193     35.821
      125.3      3.197     45.237
      125.3      3.200     56.367
      125.3      3.202     62.361
      125.3      3.203     55.500
      125.3      3.207     59.769
      125.3      3.208     52.048
      125.3      3.214     61.454
      125.3      3.217     58.015
      125.3      3.220     55.430
      125.3      3.223     51.134
      125.3      3.225     47.695
      125.3      3.228     52.828
      125.3      3.230     70.823
      125.3      3.232     63.955
      125.3      3.234     81.092
      125.3      3.241     80.208
      125.3      3.244     75.052
      125.3      3.247     75.038
      125.3      3.247     87.900
      125.3      3.252     73.304
      125.3      3.257     71.573
      125.3      3.259     76.706
      125.3      3.263     80.118
      125.3      3.265     77.540
      125.3      3.268     80.098
      125.3      3.274     79.220
      125.3      3.276     74.067
      125.3      3.276     84.354
      125.3      3.279     86.912
      125.3      3.284     78.320
      125.3      3.290     86.872
      125.3      3.294     78.283
      125.3      3.299     85.978
      125.3      3.302     93.679
      125.3      3.308     92.798
      125.3      3.313     87.635
      125.3      3.322     94.459
      125.3      3.326     87.585
      125.3      3.332     93.562
      125.3      3.333     98.698
      125.3      3.339     89.246
      125.3      3.344     93.515
      125.3      3.349     93.495
      125.3      3.353     94.335
      125.3      3.356     92.607
      125.3      3.361     91.730
      125.3      3.366     94.285
      125.3      3.370     92.554
      125.3      3.374     94.252
      125.3      3.375    101.106
      125.3      3.379     97.660
      125.3      3.384     96.783
      125.3      3.387     86.483
      125.3      3.393     93.321
      125.3      3.396     93.307
      125.3      3.403     90.709
      125.3      3.406     96.696
      125.3      3.411     90.675
      125.3      3.414     90.662
      125.3      3.419     89.788
      125.3      3.425     85.479
      125.3      3.428     90.608
      125.3      3.433     85.445
      125.3      3.439     80.278
      125.3      3.444     87.116
      125.3      3.448     89.671
      125.3      3.452     92.226
      125.3      3.456     81.069
      125.3      3.462     85.331
      125.3      3.465     92.175
      125.3      3.470     86.155
      125.3      3.473     82.713
      125.3      3.478     82.696
      125.3      3.484     82.672
      125.3      3.489     92.082
      125.3      3.491     78.356
      125.3      3.497     83.476
      125.3      3.502     86.885
      125.3      3.506     85.154
      125.3      3.512     82.559
      125.3      3.516     77.399
      125.3      3.522     80.807
      125.3      3.525     94.509
      125.3      3.530     97.918
      125.3      3.534     99.616
      125.3      3.536     91.037
      125.3      3.539     85.880
      125.3      3.542     76.441
      125.3      3.549     84.129
      125.3      3.553     78.112
      125.3      3.558     73.806
      125.3      3.562     82.361
      125.3      3.567     75.483
      125.3      3.570     70.327
      125.3      3.575     64.306
      125.3      3.580     69.433
      125.3      3.586     71.124
      125.3      3.591     60.814
      125.3      3.593     69.379
      125.3      3.598     73.645
      125.3      3.603     76.196
      125.3      3.609     85.602
      125.3      3.613     76.160
      125.3      3.617     75.286
      125.3      3.623     77.834
      125.3      3.625     87.253
      125.3      3.631     87.230
      125.3      3.637     90.635
      125.3      3.641     99.194
      125.3      3.646    101.742
      125.3      3.651    110.297
      125.3      3.653    105.144
      125.3      3.660     97.402
      125.3      3.665     88.810
      125.3      3.671     83.643
      125.3      3.677     79.334
      125.3      3.686     83.583
      125.3      3.689     62.140
      125.3      3.696     68.113
      125.3      3.699     68.103
      125.3      3.704     73.226
      125.3      3.708     62.066
      125.3      3.714     42.327
      125.3      3.719     37.163
      125.3      3.726     43.137
      125.3      3.730     42.263
      125.3      3.735     37.957
      125.3      3.738     32.800
      125.3      3.741     30.219
      125.3      3.746     31.913
      125.3      3.752     28.461
      125.3      3.755     22.447
      125.3      3.759     26.716
      125.3      3.764     20.696
      125.3      3.770     24.958
      125.3      3.771     18.954
      125.3      3.777     18.074
      125.3      3.782     20.625
      125.3      3.787     18.891
      125.3      3.795     18.000
      125.3      3.802     17.020
      125.3      3.808     16.657
      125.3      3.813     18.968
      125.3      3.818     22.063
      125.3      3.824     20.471
      125.3      3.828     22.011
      125.3      3.831     29.013
      125.3      3.835     25.094
      125.3      3.840     31.308
      125.3      3.842     27.397
      125.3      3.847     33.611
      125.3      3.852     33.003
      125.3      3.856     35.186
      125.3      3.862     34.424
      125.3      3.865     38.080
      125.3      3.870     40.263
      125.3      3.878     37.277
      125.3      3.884     36.512
      125.3      3.893     38.672
      125.3      3.904     32.000
      125.3      3.914     30.477
      125.3      3.923     27.492
      125.3      3.933     26.708
      125.3      3.943     61.200
      125.3      3.946     75.150
      125.3      3.952     73.650
      125.3      3.956     83.182
      125.3      3.962     87.562
      125.3      3.967     87.539
      125.3      3.972     86.043
      125.3      3.977     88.956
      125.3      3.981     80.849
      125.3      3.986     84.501
      125.3      3.991     77.125
      125.3      3.997     74.151
      125.3      4.001     80.012
      125.3      4.006     67.490
      125.3      4.010     71.143
      125.3      4.016     78.466
      125.3      4.021     78.436
      125.3      4.025     74.007
      125.3      4.032     70.298
      125.3      4.041     68.779
      125.3      4.051     66.525
      125.3      4.060     63.540
      125.3      4.070     62.017
      125.3      4.080     59.759
      125.3      4.090     58.240
      125.3      4.100     56.717
      125.3      4.105     51.545
      125.3      4.109     55.201
      125.3      4.114     54.440
      125.3      4.120     48.530
      125.3      4.124     52.182
      125.3      4.129     43.336
      125.3      4.134     39.634
      125.3      4.139     39.608
      125.3      4.145     39.577
      125.3      4.150     38.085
      125.3      4.155     39.528
      125.3      4.160     41.707
      125.3      4.163     38.748
      125.3      4.171     37.240
      125.3      4.174     29.875
      125.3      4.179     24.700
      125.3      4.185     26.140
      125.3      4.190     22.442
      125.3      4.193     18.748
      125.3      4.199     16.513
      125.3      4.203     18.699
      125.3      4.208     17.938
      125.3      4.214     17.172
      125.3      4.219     20.086
      125.3      4.226     19.317
      125.3      4.229     25.178
      125.3      4.235     30.293
      125.3      4.240     30.270
      125.3      4.246     36.851
      125.3      4.251     30.945
      125.3      4.255     29.456
      125.3      4.260     34.574
      125.3      4.265     39.697
      125.3      4.270     36.730
      125.3      4.274     34.503
      125.3      4.280     37.413
      125.3      4.284     39.599
      125.3      4.289     45.452
      125.3      4.295     41.012
      125.3      4.298     46.138
      125.3      4.304     43.903
      125.3      4.309     45.346
      125.3      4.314     51.939
      125.3      4.320     46.764
      125.3      4.325     46.737
      125.3      4.331     46.703
      125.3      4.336     48.151
      125.3      4.341     51.064
      125.3      4.346     47.363
      125.3      4.350     37.050
      125.3      4.355     45.112
      125.3      4.359     37.740
      125.3      4.363     39.922
      125.3      4.369     37.687
      125.3      4.374     45.749
      125.3      4.380     40.574
      125.3      4.386     38.335
      125.3      4.390     44.196
      125.3      4.396     39.017
      125.3      4.400     36.793
      125.3      4.404     30.890
      125.3      4.410     32.330
      125.3      4.415     25.693
      125.3      4.420     30.076
      125.3      4.426     28.572
      125.3      4.431     23.404
      125.3      4.437     24.109
      125.3      4.441     18.942
      125.3      4.447     15.971
      125.3      4.452     15.210
      125.3      4.456     19.597
      125.3      4.462     13.691
      125.3      4.467     18.809
      125.3      4.474     15.832
      125.3      4.483     23.136
      125.3      4.488     28.255
      125.3      4.493     26.758
      125.3      4.498     36.287
      125.3      4.502     41.413
      125.3      4.509     40.644
      125.3      4.512     53.124
      125.3      4.518     52.355
      125.3      4.523     46.449
      125.3      4.529     61.118
      125.3      4.535     61.823
      125.3      4.538     69.158
      125.3      4.545     63.244
      125.3      4.551     72.034
      125.3      4.555     77.156
      125.3      4.558     88.901
      125.3      4.564     93.281
      125.3      4.570     93.986
      125.3      4.576     97.627
      125.3      4.583     95.388
      125.3      4.589     88.004
      125.3      4.595     82.097
      125.3      4.599     80.605
      125.3      4.605     75.430
      125.3      4.610     72.463
      125.3      4.613     68.773
      125.3      4.617     68.015
      125.3      4.624     66.511
      125.3      4.629     63.545
      125.3      4.634     61.313
      125.3      4.639     67.902
      125.3      4.644     51.705
      125.3      4.649     53.149
      125.3      4.654     45.038
      125.3      4.660     42.071
      125.3      4.665     42.041
      125.3      4.669     36.877
      125.3      4.676     42.723
      125.3      4.681     39.022
      125.3      4.685     33.854
      125.3      4.691     33.824
      125.3      4.698     44.815
      125.3      4.702     58.757
      125.3      4.707     66.084
      125.3      4.710     73.419
      125.3      4.715     72.658
      125.3      4.718     77.784
      125.3      4.723     77.758
      125.3      4.726     83.626
      125.3      4.730     87.279
      125.3      4.736     96.069
      125.3      4.737     85.775
      125.3      4.739    100.463
      125.3      4.743     98.975
      125.3      4.747     97.482
      125.3      4.751     96.724
      125.3      4.753    102.597
      125.3      4.757    108.454
      125.3      4.764    106.215
      125.3      4.768    107.662
      125.3      4.774    109.837
      125.3      4.779    108.341
      125.3      4.780    103.927
      125.3      4.783     92.887
      125.3      4.788     95.800
      125.3      4.794     99.445
      125.3      4.800     95.907
      125.3      4.802     91.034
      125.3      4.809     89.956
      125.3      4.814     93.749
      125.3      4.819     94.294
      125.3      4.824     95.921
      125.3      4.829     90.509
      125.3      4.834     88.888
      125.3      4.840     95.931
      125.3      4.845     90.519
      125.3      4.852     93.772
      125.3      4.857    100.273
      125.3      4.863     99.194
      125.3      4.867     86.200
      125.3      4.872     84.037
      125.3      4.878     86.748
      125.3      4.883     90.000
      125.3      4.887     86.754
      125.3      4.893     86.216
      125.3      4.899     88.927
      125.3      4.904     74.608
      125.3      4.909     83.258
      125.3      4.915     83.262
      125.3      4.920     74.110
      125.3      4.925     89.372
      125.3      4.931     82.254
      125.3      4.937     86.327
      125.3      4.941     80.226
      125.3      4.947     85.316
      125.3      4.951     88.370
      125.3      4.957     81.253
      125.3      4.963     86.342
      125.3      4.969     75.665
      125.3      4.973     79.228
      125.3      4.982     82.285
      125.3      4.987     80.253
      125.3      4.992     73.644
      125.3      4.997     73.139
      125.3      5.003     71.616
      125.3      5.007     90.438
      125.3      5.013     77.726
      125.3      5.018     83.833
      125.3      5.026     84.346
      125.3      5.035     80.791
      125.3      5.040     85.880
      125.3      5.049     84.869
      125.3      5.057     85.891
      125.3      5.065     84.878
      125.3      5.071     85.390
      125.3      5.077     82.342
      125.3      5.084     82.346
      125.3      5.089     82.350
      125.3      5.095     80.318
      125.3      5.101     81.848
      125.3      5.104     75.238
      125.3      5.111     74.733
      125.3      5.116     73.719
      125.3      5.121     77.791
      125.3      5.127     73.725
      125.3      5.132     67.625
      125.3      5.138     71.698
      125.3      5.144     64.071
      125.3      5.149     64.583
      125.3      5.155     61.027
      125.3      5.160     52.383
      125.3      5.166     50.860
      125.3      5.171     52.389
      125.3      5.177     47.306
      125.3      5.182     47.309
      125.3      5.188     43.244
      125.3      5.194     46.808
      125.3      5.201     43.760
      125.3      5.208     39.187
      125.3      5.216     43.770
      125.3      5.221     42.755
      125.3      5.228     43.268
      125.3      5.233     33.098
      125.3      5.238     26.489
      125.3      5.244     24.458
      125.3      5.251     23.953
      125.3      5.256     25.482
      125.3      5.260     31.589
      125.3      5.265     37.187
      125.3      5.272     43.294
      125.3      5.278     50.419
      125.3      5.283     59.069
      125.3      5.288     65.176
      125.3      5.294     58.058
      125.3      5.301     51.958
      125.3      5.306     53.996
      125.3      5.310     57.051
      125.3      5.316     58.071
      125.3      5.321     58.074
      125.3      5.327     54.518
      125.3      5.331     61.641
      125.3      5.337     55.032
      125.3      5.344     59.106
      125.3      5.350     65.213
      125.3      5.356     60.130
      125.3      5.360     64.202
      125.3      5.365     59.118
      125.3      5.372     62.174
      125.3      5.377     59.634
      125.3      5.383     64.215
      125.3      5.388     61.167
      125.3      5.393     60.153
      125.3      5.399     65.243
      125.3      5.406     58.634
      125.3      5.412     62.198
      125.3      5.416     65.253
      125.3      5.423     63.731
      125.3      5.428     61.699
      125.3      5.434     60.686
      125.3      5.440     58.146
      125.3      5.445     60.692
      125.3      5.451     59.170
      125.3      5.457     61.208
      125.3      5.462     60.702
      125.3      5.468     63.249
      140.8      1.707    199.172
      140.8      1.714    197.647
      140.8      1.721    199.601
      140.8      1.727    194.981
      140.8      1.734    195.003
      140.8      1.741    188.452
      140.8      1.746    186.536
      140.8      1.753    188.490
      140.8      1.760    185.419
      140.8      1.765    183.500
      140.8      1.775    179.665
      140.8      1.781    183.552
      140.8      1.785    180.856
      140.8      1.791    177.782
      140.8      1.798    174.711
      140.8      1.802    172.406
      140.8      1.812    166.635
      140.8      1.816    164.330
      140.8      1.824    165.900
      140.8      1.829    158.185
      140.8      1.835    156.271
      140.8      1.842    153.200
      140.8      1.848    156.698
      140.8      1.855    150.148
      140.8      1.862    135.090
      140.8      1.870    110.759
      140.8      1.876     87.584
      140.8      1.880     82.570
      140.8      1.883    125.490
      140.8      1.888    180.789
      140.8      1.892    198.197
      140.8      1.896    192.799
      140.8      1.900    183.531
      140.8      1.902    177.353
      140.8      1.909    171.962
      140.8      1.915    168.888
      140.8      1.927    165.445
      140.8      1.934    158.121
      140.8      1.942    160.467
      140.8      1.955    155.868
      140.8      1.967    153.587
      140.8      1.982    156.724
      140.8      1.994    149.031
      140.8      2.007    144.816
      140.8      2.022    138.292
      140.8      2.037    139.497
      140.8      2.050    140.310
      140.8      2.070    131.867
      140.8      2.090    131.544
      140.8      2.116    124.278
      140.8      2.137    126.277
      140.8      2.157    121.313
      140.8      2.179    120.609
      140.8      2.201    119.902
      140.8      2.221    114.552
      140.8      2.242    106.111
      140.8      2.263    108.497
      140.8      2.285    101.221
      140.8      2.308    109.021
      140.8      2.330     97.879
      140.8      2.351    101.038
      140.8      2.359     96.809
      140.8      2.401     90.752
      140.8      2.409     89.618
      140.8      2.418     84.232
      140.8      2.428     87.356
      140.8      2.440     86.621
      140.8      2.449     87.036
      140.8      2.454     86.663
      140.8      2.460     89.775
      140.8      2.462     82.437
      140.8      2.467     82.840
      140.8      2.473     84.017
      140.8      2.480     83.267
      140.8      2.487     84.062
      140.8      2.493     84.854
      140.8      2.503     83.336
      140.8      2.514     78.733
      140.8      2.521     80.687
      140.8      2.537     77.255
      140.8      2.546     77.670
      140.8      2.556     76.544
      140.8      2.563     76.562
      140.8      2.574     75.438
      140.8      2.583     75.080
      140.8      2.588     80.507
      140.8      2.592     72.787
      140.8      2.594     75.288
      140.8      2.599     75.275
      140.8      2.601     81.260
      140.8      2.605     81.248
      140.8      2.610     86.052
      140.8      2.619     85.068
      140.8      2.621     88.914
      140.8      2.627     91.789
      140.8      2.630     95.635
      140.8      2.635     98.510
      140.8      2.638     80.204
      140.8      2.640     60.937
      140.8      2.643     68.635
      140.8      2.646     58.996
      140.8      2.653     59.941
      140.8      2.658     63.782
      140.8      2.662     58.955
      140.8      2.665     70.505
      140.8      2.669     66.644
      140.8      2.673     61.819
      140.8      2.677     60.846
      140.8      2.682     61.796
      140.8      2.685     63.715
      140.8      2.686     68.528
      140.8      2.690     63.703
      140.8      2.694     66.581
      140.8      2.697     59.832
      140.8      2.702     62.710
      140.8      2.707     59.809
      140.8      2.709     62.692
      140.8      2.714     64.606
      140.8      2.718     63.634
      140.8      2.722     66.514
      140.8      2.725     64.578
      140.8      2.730     62.641
      140.8      2.736     62.627
      140.8      2.737     56.843
      140.8      2.742     58.758
      140.8      2.747     52.004
      140.8      2.749     62.594
      140.8      2.753     57.767
      140.8      2.758     57.755
      140.8      2.761     52.933
      140.8      2.766     61.587
      140.8      2.769     55.801
      140.8      2.773     55.792
      140.8      2.778     56.744
      140.8      2.783     50.951
      140.8      2.788     56.718
      140.8      2.791     46.117
      140.8      2.795     51.884
      140.8      2.800     48.983
      140.8      2.803     45.124
      140.8      2.809     47.999
      140.8      2.817     45.089
      140.8      2.820     37.377
      140.8      2.824     29.660
      140.8      2.830     23.868
      140.8      2.832     35.421
      140.8      2.836     46.969
      140.8      2.839     53.702
      140.8      2.844     51.764
      140.8      2.849     53.678
      140.8      2.852     51.745
      140.8      2.857     60.399
      140.8      2.862     54.609
      140.8      2.866     45.932
      140.8      2.869     53.627
      140.8      2.877     56.498
      140.8      2.879     87.314
      140.8      2.885     71.888
      140.8      2.886     66.106
      140.8      2.887     57.436
      140.8      2.894     48.752
      140.8      2.898     46.814
      140.8      2.903     45.839
      140.8      2.909     50.641
      140.8      2.913     49.666
      140.8      2.916     43.880
      140.8      2.920     41.945
      140.8      2.921     49.648
      140.8      2.929     42.885
      140.8      2.935     49.613
      140.8      2.937     46.719
      140.8      2.939     63.087
      140.8      2.942     73.675
      140.8      2.942     90.048
      140.8      2.943     96.785
      140.8      2.947     88.108
      140.8      2.952     48.608
      140.8      2.957     54.375
      140.8      2.958     44.739
      140.8      2.963     39.912
      140.8      2.966     47.610
      140.8      2.971     34.113
      140.8      2.975     42.771
      140.8      2.980     34.092
      140.8      2.985     33.115
      140.8      2.991     33.101
      140.8      2.993     40.801
      140.8      2.999     36.935
      140.8      3.002     32.110
      140.8      3.008     32.096
      140.8      3.012     33.050
      140.8      3.016     34.965
      140.8      3.022     33.024
      140.8      3.027     30.123
      140.8      3.031     25.296
      140.8      3.036     32.026
      140.8      3.042     26.234
      140.8      3.045     26.225
      140.8      3.049     21.400
      140.8      3.053     33.911
      140.8      3.057     28.123
      140.8      3.062     27.146
      140.8      3.067     26.171
      140.8      3.070     31.943
      140.8      3.073     27.118
      140.8      3.079     28.067
      140.8      3.084     29.019
      140.8      3.088     29.971
      140.8      3.096     25.136
      140.8      3.099     32.835
      140.8      3.103     30.897
      140.8      3.108     35.701
      140.8      3.113     31.837
      140.8      3.118     32.788
      140.8      3.122     41.445
      140.8      3.125     34.696
      140.8      3.130     40.463
      140.8      3.135     36.597
      140.8      3.139     45.256
      140.8      3.143     37.541
      140.8      3.147     42.345
      140.8      3.151     40.410
      140.8      3.156     43.288
      140.8      3.161     44.239
      140.8      3.165     46.154
      140.8      3.168     52.889
      140.8      3.173     46.135
      140.8      3.177     52.866
      140.8      3.181     46.115
      140.8      3.185     49.958
      140.8      3.190     46.094
      140.8      3.193     83.647
      140.8      3.193     72.091
      140.8      3.196     94.234
      140.8      3.200     90.372
      140.8      3.206     82.653
      140.8      3.209     86.497
      140.8      3.212     79.748
      140.8      3.217     78.773
      140.8      3.219     88.400
      140.8      3.223    102.837
      140.8      3.226    111.496
      140.8      3.229     98.006
      140.8      3.238     97.985
      140.8      3.240     93.162
      140.8      3.244     93.153
      140.8      3.248     94.107
      140.8      3.253    101.798
      140.8      3.257     89.268
      140.8      3.261     95.037
      140.8      3.267     89.242
      140.8      3.268    100.798
      140.8      3.272     95.010
      140.8      3.274    102.710
      140.8      3.278    100.775
      140.8      3.282     99.800
      140.8      3.287    109.420
      140.8      3.291    105.558
      140.8      3.295    105.548
      140.8      3.299    103.611
      140.8      3.305     93.002
      140.8      3.311    102.620
      140.8      3.313     96.834
      140.8      3.320    100.670
      140.8      3.323    109.332
      140.8      3.328    110.281
      140.8      3.331    103.532
      140.8      3.336    105.447
      140.8      3.341    109.285
      140.8      3.345    103.497
      140.8      3.350    100.596
      140.8      3.353    111.184
      140.8      3.359    105.389
      140.8      3.363     96.711
      140.8      3.368    103.442
      140.8      3.368    109.220
      140.8      3.372     99.578
      140.8      3.376    102.458
      140.8      3.381    107.262
      140.8      3.387    104.356
      140.8      3.390     96.644
      140.8      3.394    102.414
      140.8      3.399    104.328
      140.8      3.405    102.386
      140.8      3.408    106.231
      140.8      3.414     99.476
      140.8      3.417    108.135
      140.8      3.423    109.084
      140.8      3.426    105.224
      140.8      3.432    103.282
      140.8      3.434     96.535
      140.8      3.442     98.443
      140.8      3.445    102.286
      140.8      3.449     95.535
      140.8      3.454    101.302
      140.8      3.458     94.551
      140.8      3.462     93.577
      140.8      3.466     97.420
      140.8      3.473     96.440
      140.8      3.476     89.689
      140.8      3.481     93.530
      140.8      3.486     98.334
      140.8      3.489    103.141
      140.8      3.496    104.088
      140.8      3.499     90.597
      140.8      3.504     97.325
      140.8      3.509     94.424
      140.8      3.514    103.080
      140.8      3.517    100.184
      140.8      3.522     92.465
      140.8      3.527     96.306
      140.8      3.531     91.481
      140.8      3.532     85.700
      140.8      3.536     88.578
      140.8      3.539     82.792
      140.8      3.542     87.601
      140.8      3.547     89.513
      140.8      3.551     85.652
      140.8      3.558     90.451
      140.8      3.562     97.181
      140.8      3.568     97.167
      140.8      3.575     94.262
      140.8      3.579    102.918
      140.8      3.581     94.246
      140.8      3.585    107.720
      140.8      3.587    115.421
      140.8      3.590     93.262
      140.8      3.595     87.469
      140.8      3.597     95.169
      140.8      3.599     92.275
      140.8      3.605     96.114
      140.8      3.609     85.508
      140.8      3.614     89.349
      140.8      3.618     95.118
      140.8      3.626    102.803
      140.8      3.632     92.194
      140.8      3.638     98.920
      140.8      3.643     96.982
      140.8      3.647     81.563
      140.8      3.651     71.920
      140.8      3.654     51.687
      140.8      3.661     52.634
      140.8      3.665     43.954
      140.8      3.670     41.054
      140.8      3.675     46.821
      140.8      3.679     40.067
      140.8      3.683     41.984
      140.8      3.688     42.936
      140.8      3.692     44.850
      140.8      3.696     50.620
      140.8      3.702     49.643
      140.8      3.707     47.703
      140.8      3.712     40.949
      140.8      3.718     36.120
      140.8      3.721     31.295
      140.8      3.725     31.286
      140.8      3.730     29.348
      140.8      3.733     37.046
      140.8      3.736     26.442
      140.8      3.742     25.465
      140.8      3.743     33.168
      140.8      3.749     31.228
      140.8      3.754     25.435
      140.8      3.759     34.092
      140.8      3.764     28.301
      140.8      3.771     26.357
      140.8      3.778     28.267
      140.8      3.781     24.405
      140.8      3.787     29.207
      140.8      3.791     34.976
      140.8      3.797     33.997
      140.8      3.804     35.277
      140.8      3.807     45.558
      140.8      3.813     43.323
      140.8      3.818     44.039
      140.8      3.822     49.902
      140.8      3.827     53.559
      140.8      3.832     56.478
      140.8      3.836     62.341
      140.8      3.840     66.733
      140.8      3.846     67.442
      140.8      3.851     74.041
      140.8      3.855     70.345
      140.8      3.860     76.943
      140.8      3.865     82.803
      140.8      3.871     84.247
      140.8      3.877     84.954
      140.8      3.884     95.219
      140.8      3.889     87.108
      140.8      3.893    102.529
      140.8      3.898    101.036
      140.8      3.904    104.687
      140.8      3.908    112.024
      140.8      3.913    123.765
      140.8      3.918    130.364
      140.8      3.923    132.544
      140.8      3.926    148.707
      140.8      3.933    147.942
      140.8      3.937    161.893
      140.8      3.942    151.577
      140.8      3.948    136.114
      140.8      3.952    131.683
      140.8      3.958    121.363
      140.8      3.961    105.909
      140.8      3.967    108.821
      140.8      3.970     99.250
      140.8      3.976     98.489
      140.8      3.980     99.940
      140.8      3.986     95.502
      140.8      3.990     94.012
      140.8      3.996     92.519
      140.8      3.999     87.356
      140.8      4.004     92.481
      140.8      4.009     92.458
      140.8      4.015     88.024
      140.8      4.020     82.119
      140.8      4.024     86.511
      140.8      4.029     86.489
      140.8      4.034     89.407
      140.8      4.040     90.852
      140.8      4.043     80.545
      140.8      4.049     88.607
      140.8      4.053     81.235
      140.8      4.059     83.415
      140.8      4.064     81.187
      140.8      4.068     84.112
      140.8      4.074     84.086
      140.8      4.079     79.652
      140.8      4.085     78.891
      140.8      4.089     81.813
      140.8      4.093     78.117
      140.8      4.099     81.771
      140.8      4.104     83.954
      140.8      4.107     77.324
      140.8      4.114     75.821
      140.8      4.118     80.952
      140.8      4.123     83.867
      140.8      4.128     77.965
      140.8      4.134     74.263
      140.8      4.137     84.541
      140.8      4.142     87.459
      140.8      4.148     88.172
      140.8      4.154     84.467
      140.8      4.158     80.039
      140.8      4.162     91.784
      140.8      4.167     95.441
      140.8      4.172     93.213
      140.8      4.177     96.131
      140.8      4.181    100.523
      140.8      4.188     99.759
      140.8      4.193    104.884
      140.8      4.197    110.014
      140.8      4.203    115.136
      140.8      4.208    119.525
      140.8      4.212    124.652
      140.8      4.218    129.038
      140.8      4.223    128.280
      140.8      4.226    131.944
      140.8      4.233    129.709
      140.8      4.237    131.895
      140.8      4.243    123.782
      140.8      4.248    116.406
      140.8      4.252    106.828
      140.8      4.257    100.923
      140.8      4.262     88.401
      140.8      4.267     81.026
      140.8      4.273     77.324
      140.8      4.277     70.690
      140.8      4.282     82.432
      140.8      4.286     80.207
      140.8      4.292     79.449
      140.8      4.297     84.573
      140.8      4.302     97.050
      140.8      4.306     98.505
      140.8      4.311     99.949
      140.8      4.316     96.254
      140.8      4.322     96.960
      140.8      4.327    103.558
      140.8      4.333     97.650
      140.8      4.337     96.160
      140.8      4.343     99.076
      140.8      4.348    102.729
      140.8      4.353    101.236
      140.8      4.357     99.011
      140.8      4.363    100.459
      140.8      4.368    104.848
      140.8      4.371     96.009
      140.8      4.376    108.486
      140.8      4.381    103.319
      140.8      4.389    102.549
      140.8      4.392    113.565
      140.8      4.397    110.601
      140.8      4.403    110.576
      140.8      4.408    111.288
      140.8      4.412    113.475
      140.8      4.417    115.661
      140.8      4.422    120.050
      140.8      4.427    125.175
      140.8      4.433    117.061
      140.8      4.438    123.656
      140.8      4.443    128.780
      140.8      4.448    132.434
      140.8      4.453    126.532
      140.8      4.458    128.716
      140.8      4.463    130.899
      140.8      4.470    136.014
      140.8      4.475    142.612
      140.8      4.480    147.733
      140.8      4.486    138.887
      140.8      4.490    127.838
      140.8      4.495    127.816
      140.8      4.501    127.790
      140.8      4.506    121.150
      140.8      4.511    118.186
      140.8      4.516    104.929
      140.8      4.520     98.295
      140.8      4.526     94.593
      140.8      4.532     90.887
      140.8      4.538     89.391
      140.8      4.542     80.552
      140.8      4.548     79.052
      140.8      4.553     83.444
      140.8      4.558     78.272
      140.8      4.563     81.193
      140.8      4.568     84.112
      140.8      4.574     84.821
      140.8      4.580     83.325
      140.8      4.584     88.453
      140.8      4.588     81.084
      140.8      4.593     82.529
      140.8      4.599     77.356
      140.8      4.604     78.804
      140.8      4.610     76.575
      140.8      4.614     80.232
      140.8      4.620     70.648
      140.8      4.625     68.420
      140.8      4.630     68.397
      140.8      4.638     68.362
      140.8      4.641     60.996
      140.8      4.647     59.496
      140.8      4.652     60.947
      140.8      4.658     60.186
      140.8      4.662     51.344
      140.8      4.667     53.527
      140.8      4.673     46.884
      140.8      4.677     42.456
      140.8      4.682     40.224
      140.8      4.688     35.787
      140.8      4.694     35.026
      140.8      4.700     36.470
      140.8      4.705     41.595
      140.8      4.710     48.190
      140.8      4.715     49.638
      140.8      4.721     50.347
      140.8      4.726     55.472
      140.8      4.729     62.811
      140.8      4.736     61.312
      140.8      4.740     65.704
      140.8      4.747     71.557
      140.8      4.753     74.473
      140.8      4.756     82.548
      140.8      4.762     80.313
      140.8      4.767     79.555
      140.8      4.773     81.738
      140.8      4.778     80.245
      140.8      4.784     78.014
      140.8      4.789     80.197
      140.8      4.793     86.060
      140.8      4.800     84.560
      140.8      4.802     85.569
      140.8      4.807     89.595
      140.8      4.811     85.065
      140.8      4.818     89.595
      140.8      4.820     83.555
      140.8      4.824     86.072
      140.8      4.828     83.555
      140.8      4.834     82.045
      140.8      4.838     83.052
      140.8      4.844     83.555
      140.8      4.849     81.038
      140.8      4.855     79.025
      140.8      4.860     82.045
      140.8      4.866     88.085
      140.8      4.871     77.515
      140.8      4.877     77.012
      140.8      4.882     77.515
      140.8      4.886     79.528
      140.8      4.892     79.528
      140.8      4.898     79.528
      140.8      4.904     74.998
      140.8      4.908     69.965
      140.8      4.912     71.978
      140.8      4.918     73.992
      140.8      4.925     78.018
      140.8      4.931     81.542
      140.8      4.936     66.945
      140.8      4.940     72.985
      140.8      4.947     68.455
      140.8      4.951     70.972
      140.8      4.957     64.931
      140.8      4.962     69.462
      140.8      4.968     68.455
      140.8      4.974     67.448
      140.8      4.978     74.495
      140.8      4.985     70.468
      140.8      4.990     66.441
      140.8      4.995     71.978
      140.8      5.001     69.965
      140.8      5.006     64.931
      140.8      5.010     68.455
      140.8      5.018     66.945
      140.8      5.022     65.435
      140.8      5.028     70.468
      140.8      5.032     62.415
      140.8      5.039     61.408
      140.8      5.044     62.415
      140.8      5.049     59.395
      140.8      5.055     60.905
      140.8      5.060     58.891
      140.8      5.065     57.885
      140.8      5.070     55.871
      140.8      5.076     50.334
      140.8      5.081     59.395
      140.8      5.087     52.851
      140.8      5.093     56.375
      140.8      5.098     48.321
      140.8      5.103     49.328
      140.8      5.110     49.831
      140.8      5.112     62.415
      140.8      5.113     68.958
      140.8      5.119     70.972
      140.8      5.121     65.938
      140.8      5.124     64.931
      140.8      5.127     60.401
      140.8      5.132     46.811
      140.8      5.137     52.348
      140.8      5.142     51.341
      140.8      5.148     48.824
      140.8      5.154     50.334
      140.8      5.159     54.865
      140.8      5.165     57.381
      140.8      5.170     63.421
      140.8      5.174     57.885
      140.8      5.181     60.401
      140.8      5.187     63.925
      140.8      5.193     66.945
      140.8      5.198     64.428
      140.8      5.204     65.938
      140.8      5.208     62.415
      140.8      5.215     67.448
      140.8      5.223     62.415
      140.8      5.229     62.415
      140.8      5.231     72.985
      140.8      5.236     73.992
      140.8      5.237     68.958
      140.8      5.242     64.428
      140.8      5.249     66.441
      140.8      5.254     53.355
      140.8      5.261     52.851
      140.8      5.265     46.811
      140.8      5.272     39.764
      140.8      5.277     36.744
      140.8      5.282     37.247
      140.8      5.285     41.274
      140.8      5.287     51.341
      140.8      5.291     46.308
      140.8      5.296     37.751
      140.8      5.299     19.127
      140.8      5.306     21.644
      140.8      5.311     21.644
      140.8      5.316     24.664
      140.8      5.320     25.671
      140.8      5.325     28.691
      140.8      5.331     29.194
      140.8      5.336     27.684
      140.8      5.343     29.697
      140.8      5.349     30.201
      140.8      5.354     34.227
      140.8      5.360     34.227
      140.8      5.366     33.221
      140.8      5.371     32.214
      140.8      5.377     33.221
      140.8      5.383     34.731
      140.8      5.389     33.221
      140.8      5.393     38.758
      140.8      5.400     34.731
      140.8      5.405     32.717
      140.8      5.411     34.227
      140.8      5.417     37.247
      140.8      5.423     33.221
      140.8      5.429     33.221
      140.8      5.434     34.731
      140.8      5.440     37.247
      140.8      5.445     36.744
      140.8      5.451     37.751
      140.8      5.456     36.241
      140.8      5.462     37.247
      140.8      5.468     36.744
      140.8      5.472     38.254
      140.8      5.478     39.764
      140.8      5.482     44.798
      140.8      5.484     49.328
      140.8      5.490     49.328
      140.8      5.493     45.301
      140.8      5.496     40.268
      140.8      5.501     37.247
      140.8      5.506     35.737
      140.8      5.512     38.254
      140.8      5.518     40.268
      140.8      5.524     38.758
      149.5      2.404     86.386
      149.5      2.409     82.582
      149.5      2.416     81.623
      149.5      2.424     81.612
      149.5      2.431     81.602
      149.5      2.439     79.693
      149.5      2.447     81.581
      149.5      2.454     83.471
      149.5      2.470     82.498
      149.5      2.481     82.484
      149.5      2.489     83.422
      149.5      2.498     79.613
      149.5      2.503     74.859
      149.5      2.507     81.499
      149.5      2.511     79.596
      149.5      2.515     70.096
      149.5      2.519     78.635
      149.5      2.524     78.628
      149.5      2.528     76.725
      149.5      2.532     79.566
      149.5      2.540     85.252
      149.5      2.544     71.955
      149.5      2.547     77.647
      149.5      2.553     75.741
      149.5      2.558     75.733
      149.5      2.563     83.322
      149.5      2.569     72.871
      149.5      2.571     78.565
      149.5      2.575     77.609
      149.5      2.580     77.603
      149.5      2.585     76.647
      149.5      2.590     81.386
      149.5      2.595     75.684
      149.5      2.599     79.476
      149.5      2.604     77.570
      149.5      2.606     88.010
      149.5      2.612     92.749
      149.5      2.612     85.154
      149.5      2.618    100.335
      149.5      2.619     93.689
      149.5      2.620     84.194
      149.5      2.626     87.034
      149.5      2.627     80.387
      149.5      2.630     89.877
      149.5      2.634     90.820
      149.5      2.636     84.172
      149.5      2.639     70.877
      149.5      2.641     63.280
      149.5      2.643     58.530
      149.5      2.647     52.828
      149.5      2.652     49.973
      149.5      2.655     52.818
      149.5      2.658     57.561
      149.5      2.662     57.555
      149.5      2.664     53.754
      149.5      2.671     63.239
      149.5      2.681     58.478
      149.5      2.691     61.314
      149.5      2.702     58.450
      149.5      2.712     57.487
      149.5      2.721     62.222
      149.5      2.731     59.360
      149.5      2.740     55.550
      149.5      2.751     61.232
      149.5      2.761     56.471
      149.5      2.771     54.559
      149.5      2.781     51.698
      149.5      2.792     50.733
      149.5      2.800     51.671
      149.5      2.808     47.864
      149.5      2.817     45.003
      149.5      2.822     38.351
      149.5      2.826     35.496
      149.5      2.828     26.950
      149.5      2.832     18.400
      149.5      2.835     28.839
      149.5      2.837     41.179
      149.5      2.841     58.262
      149.5      2.843     63.954
      149.5      2.849     65.846
      149.5      2.856     69.633
      149.5      2.857     62.037
      149.5      2.862     61.081
      149.5      2.866     59.177
      149.5      2.871     62.967
      149.5      2.875     71.506
      149.5      2.881     97.131
      149.5      2.881    114.220
      149.5      2.882    127.510
      149.5      2.888    108.514
      149.5      2.891     82.877
      149.5      2.892     67.686
      149.5      2.892     59.142
      149.5      2.899     52.487
      149.5      2.904     51.530
      149.5      2.906     47.730
      149.5      2.913     46.772
      149.5      2.918     49.612
      149.5      2.923     49.606
      149.5      2.927     51.500
      149.5      2.930     53.393
      149.5      2.936     60.031
      149.5      2.940    103.697
      149.5      2.940     81.862
      149.5      2.943    122.680
      149.5      2.947    141.663
      149.5      2.949    158.748
      149.5      2.951    129.315
      149.5      2.952    122.668
      149.5      2.953    107.477
      149.5      2.956     68.549
      149.5      2.956     53.359
      149.5      2.959     44.811
      149.5      2.959     37.216
      149.5      2.964     39.107
      149.5      2.969     33.404
      149.5      2.974     35.297
      149.5      2.982     38.134
      149.5      2.992     32.423
      149.5      3.000     36.211
      149.5      3.005     36.203
      149.5      3.010     35.247
      149.5      3.016     33.341
      149.5      3.019     31.438
      149.5      3.049     31.396
      149.5      3.062     32.329
      149.5      3.072     34.214
      149.5      3.081     33.252
      149.5      3.093     35.134
      149.5      3.101     33.225
      149.5      3.110     40.807
      149.5      3.113     37.956
      149.5      3.120     38.896
      149.5      3.125     47.433
      149.5      3.133     44.574
      149.5      3.138     45.517
      149.5      3.145     46.457
      149.5      3.147     51.201
      149.5      3.151     47.398
      149.5      3.156     51.188
      149.5      3.162     57.826
      149.5      3.168     59.716
      149.5      3.172     62.559
      149.5      3.178     57.805
      149.5      3.184     57.796
      149.5      3.189     55.891
      149.5      3.193     56.835
      149.5      3.198     75.816
      149.5      3.199    105.244
      149.5      3.208    105.232
      149.5      3.214     99.528
      149.5      3.219    100.470
      149.5      3.222    106.163
      149.5      3.223    114.706
      149.5      3.224    125.147
      149.5      3.226    135.588
      149.5      3.230    127.987
      149.5      3.232    114.693
      149.5      3.234    106.146
      149.5      3.235     97.600
      149.5      3.239     98.545
      149.5      3.242     98.541
      149.5      3.245     97.586
      149.5      3.250     99.479
      149.5      3.255    103.270
      149.5      3.259    105.164
      149.5      3.263    103.259
      149.5      3.267    104.203
      149.5      3.272    104.196
      149.5      3.276    105.139
      149.5      3.286    107.975
      149.5      3.293    112.712
      149.5      3.304    114.595
      149.5      3.314    114.582
      149.5      3.321    113.623
      149.5      3.331    114.559
      149.5      3.338    113.600
      149.5      3.348    114.535
      149.5      3.357    117.372
      149.5      3.366    114.511
      149.5      3.376    107.853
      149.5      3.384    117.335
      149.5      3.392    116.376
      149.5      3.397    112.570
      149.5      3.401    107.819
      149.5      3.407    110.659
      149.5      3.411    112.551
      149.5      3.419    112.541
      149.5      3.428    112.528
      149.5      3.437    109.669
      149.5      3.447    105.858
      149.5      3.456    103.946
      149.5      3.463    108.684
      149.5      3.475    103.921
      149.5      3.482    104.860
      149.5      3.492    102.948
      149.5      3.502    105.783
      149.5      3.510    106.722
      149.5      3.514    111.462
      149.5      3.519    111.456
      149.5      3.525     84.866
      149.5      3.529     84.860
      149.5      3.533     85.804
      149.5      3.537     90.546
      149.5      3.542    101.930
      149.5      3.545     97.180
      149.5      3.547     92.430
      149.5      3.551     99.071
      149.5      3.556     99.063
      149.5      3.561     95.259
      149.5      3.566    102.848
      149.5      3.570    107.590
      149.5      3.574    105.685
      149.5      3.579    111.375
      149.5      3.582    126.561
      149.5      3.584    111.368
      149.5      3.586    137.948
      149.5      3.589    147.436
      149.5      3.591    120.852
      149.5      3.591    139.839
      149.5      3.596    114.200
      149.5      3.597    105.654
      149.5      3.601     99.004
      149.5      3.606     92.350
      149.5      3.611     94.243
      149.5      3.616    102.781
      149.5      3.621     99.925
      149.5      3.628    101.815
      149.5      3.630    104.660
      149.5      3.635    103.703
      149.5      3.641     97.050
      149.5      3.645     83.753
      149.5      3.648     70.458
      149.5      3.654     62.855
      149.5      3.654     53.361
      149.5      3.655     45.765
      149.5      3.659     43.861
      149.5      3.660     34.365
      149.5      3.660     39.112
      149.5      3.665     36.258
      149.5      3.668     27.710
      149.5      3.670     34.353
      149.5      3.674     31.498
      149.5      3.678     35.290
      149.5      3.683     35.284
      149.5      3.688     35.278
      149.5      3.692     40.018
      149.5      3.698     40.011
      149.5      3.699     49.503
      149.5      3.703     69.435
      149.5      3.707     64.681
      149.5      3.708     58.984
      149.5      3.711     54.233
      149.5      3.713     48.535
      149.5      3.716     44.733
      149.5      3.720     40.930
      149.5      3.725     44.721
      149.5      3.730     38.069
      149.5      3.737     36.160
      149.5      3.742     39.951
      149.5      3.749     38.991
      149.5      3.752     38.038
      149.5      3.758     38.031
      149.5      3.761     37.077
      149.5      3.767     35.170
      149.5      3.768     40.865
      149.5      3.782     41.795
      149.5      3.791     45.581
      149.5      3.810     59.345
      149.5      3.821     64.538
      149.5      3.829     70.472
      149.5      3.839     93.468
      149.5      3.848    100.144
      149.5      3.857    109.046
      149.5      3.863    110.530
      149.5      3.867    114.239
      149.5      3.870    119.431
      149.5      3.877    124.624
      149.5      3.880    135.009
      149.5      3.887    135.009
      149.5      3.892    140.202
      149.5      3.895    149.846
      149.5      3.900    156.522
      149.5      3.904    168.391
      149.5      3.909    191.387
      149.5      3.915    195.096
      149.5      3.920    217.350
      149.5      3.924    226.252
      149.5      3.929    248.506
      149.5      3.935    248.506
      149.5      3.939    229.219
      149.5      3.944    203.998
      149.5      3.948    178.034
      149.5      3.953    148.362
      149.5      3.958    139.460
      149.5      3.963    109.788
      149.5      3.974    106.079
      149.5      3.983     94.210
      149.5      3.993     94.210
      149.5      4.003     92.726
      149.5      4.013     96.435
      149.5      4.022     96.435
      149.5      4.032     91.984
      149.5      4.042     99.403
      149.5      4.052    101.628
      149.5      4.062     95.694
      149.5      4.081     97.919
      149.5      4.091    110.530
      149.5      4.100    104.595
      149.5      4.106    108.304
      149.5      4.110    109.788
      149.5      4.117    112.013
      149.5      4.120    106.821
      149.5      4.124     89.759
      149.5      4.128     92.726
      149.5      4.131    101.628
      149.5      4.134    112.755
      149.5      4.137    122.399
      149.5      4.140    133.526
      149.5      4.145    141.686
      149.5      4.151    141.686
      149.5      4.155    146.878
      149.5      4.161    146.137
      149.5      4.165    155.038
      149.5      4.170    160.231
      149.5      4.176    173.584
      149.5      4.182    176.551
      149.5      4.184    183.227
      149.5      4.189    199.547
      149.5      4.194    206.965
      149.5      4.199    229.961
      149.5      4.205    225.510
      149.5      4.210    231.445
      149.5      4.215    231.445
      149.5      4.219    233.670
      149.5      4.225    224.027
      149.5      4.230    217.350
      149.5      4.235    211.416
      149.5      4.240    202.514
      149.5      4.249    172.100
      149.5      4.255    150.588
      149.5      4.260    140.202
      149.5      4.265    121.657
      149.5      4.270    103.112
      149.5      4.276    104.595
      149.5      4.281    102.370
      149.5      4.285    111.272
      149.5      4.291    114.239
      149.5      4.295    124.624
      149.5      4.301    126.108
      149.5      4.306    129.075
      149.5      4.311    127.591
      149.5      4.315    135.009
      149.5      4.321    134.268
      149.5      4.326    137.235
      149.5      4.330    142.428
      149.5      4.337    139.460
      149.5      4.342    139.460
      149.5      4.345    152.813
      149.5      4.351    148.362
      149.5      4.354    152.813
      149.5      4.357    146.137
      149.5      4.362    146.137
      149.5      4.367    140.202
      149.5      4.372    149.104
      149.5      4.376    149.846
      149.5      4.387    155.780
      149.5      4.391    168.391
      149.5      4.397    169.133
      149.5      4.400    175.067
      149.5      4.406    175.067
      149.5      4.412    177.293
      149.5      4.416    184.711
      149.5      4.422    191.387
      149.5      4.428    193.613
      149.5      4.431    208.449
      149.5      4.436    220.318
      149.5      4.443    226.252
      149.5      4.447    239.605
      149.5      4.453    238.121
      149.5      4.458    248.506
      149.5      4.461    270.761
      149.5      4.467    270.761
      149.5      4.472    281.888
      149.5      4.478    275.212
      149.5      4.483    278.179
      149.5      4.488    281.146
      149.5      4.492    270.019
      149.5      4.498    267.052
      149.5      4.503    252.957
      149.5      4.510    239.605
      149.5      4.515    226.994
      149.5      4.519    221.801
      149.5      4.524    213.641
      149.5      4.530    200.289
      149.5      4.536    178.776
      149.5      4.540    182.485
      149.5      4.546    158.006
      149.5      4.551    152.813
      149.5      4.557    145.395
      149.5      4.562    134.268
      149.5      4.568    113.497
      149.5      4.572    102.370
      149.5      4.576     94.210
      149.5      4.584     94.210
      149.5      4.589     87.534
      149.5      4.593     89.759
      149.5      4.598     85.308
      149.5      4.604     86.050
      149.5      4.609     89.017
      149.5      4.615     87.534
      149.5      4.620     86.050
      149.5      4.625     90.501
      149.5      4.630     89.759
      149.5      4.637     88.275
      149.5      4.640     88.275
      149.5      4.645     80.857
      149.5      4.651     82.341
      149.5      4.657     82.341
      149.5      4.661     82.341
      149.5      4.668     83.083
      149.5      4.672     77.148
      149.5      4.678     81.599
      149.5      4.682     74.923
      149.5      4.687     72.697
      149.5      4.694     71.214
      149.5      4.699     54.152
      149.5      4.704     45.992
      149.5      4.708     37.832
      149.5      4.715     38.574
      149.5      4.719     42.283
      149.5      4.724     46.734
      149.5      4.730     51.185
      149.5      4.735     54.894
      149.5      4.741     59.345
      149.5      4.746     66.763
      149.5      4.752     72.697
      149.5      4.758     72.697
      149.5      4.761     78.632
      149.5      4.767     77.148
      149.5      4.772     67.505
      149.5      4.776     63.796
      149.5      4.779     71.214
      149.5      4.779     77.148
      149.5      4.784     77.148
      149.5      4.788     88.275
      149.5      4.791     93.468
      149.5      4.798     94.210
      149.5      4.805     89.759
      149.5      4.810     92.916
      149.5      4.815     90.344
      149.5      4.820     91.882
      149.5      4.825     90.852
      149.5      4.833     93.416
      149.5      4.842     89.815
      149.5      4.853     86.213
      149.5      4.857     89.806
      149.5      4.864     93.912
      149.5      4.869     93.395
      149.5      4.874     89.797
      149.5      4.879     94.417
      149.5      4.884     99.551
      149.5      4.894     94.922
      149.5      4.906     91.833
      149.5      4.917     90.286
      149.5      4.927     92.848
      149.5      4.939     93.355
      149.5      4.949     93.350
      149.5      4.960     85.638
      149.5      4.971     86.145
      149.5      4.976     88.197
      149.5      4.982     88.194
      149.5      4.987     85.109
      149.5      4.994     86.646
      149.5      4.999     83.561
      149.5      5.005     83.558
      149.5      5.010     83.041
      149.5      5.015     83.552
      149.5      5.020     83.549
      149.5      5.026     79.436
      149.5      5.031     74.296
      149.5      5.037     74.807
      149.5      5.047     73.259
      149.5      5.058     71.199
      149.5      5.068     64.001
      149.5      5.080     57.830
      149.5      5.090     49.605
      149.5      5.097     45.492
      149.5      5.102     48.057
      149.5      5.106     52.678
      149.5      5.108     60.382
      149.5      5.111     77.333
      149.5      5.113     73.222
      149.5      5.117     57.809
      149.5      5.119     46.507
      149.5      5.121     43.937
      149.5      5.124     40.339
      149.5      5.128     40.850
      149.5      5.129     35.199
      149.5      5.134     36.738
      149.5      5.136     40.846
      149.5      5.140     37.248
      149.5      5.147     42.895
      149.5      5.152     49.569
      149.5      5.157     55.731
      149.5      5.164     64.974
      149.5      5.169     68.566
      149.5      5.173     76.783
      149.5      5.178     89.109
      149.5      5.185     95.269
      149.5      5.192     96.293
      149.5      5.197    106.564
      149.5      5.202    112.212
      149.5      5.208    103.476
      149.5      5.211    111.693
      149.5      5.213    123.507
      149.5      5.220    120.934
      149.5      5.224    129.665
      149.5      5.228    149.183
      149.5      5.232    157.400
      149.5      5.235    148.666
      149.5      5.237    144.555
      149.5      5.249    150.712
      149.5      5.252    135.300
      149.5      5.258    118.344
      149.5      5.262     90.089
      149.5      5.266     84.949
      149.5      5.268     78.270
      149.5      5.271     76.214
      149.5      5.274     67.479
      149.5      5.278     59.258
      149.5      5.281     51.551
      169.1      1.745    135.876
      169.1      1.749    134.429
      169.1      1.750    130.790
      169.1      1.750    139.165
      169.1      1.753    141.358
      169.1      1.754    130.802
      169.1      1.755    138.815
      169.1      1.755    134.809
      169.1      1.756    127.166
      169.1      1.758    128.993
      169.1      1.761    133.370
      169.1      1.765    135.565
      169.1      1.769    136.669
      169.1      1.772    130.486
      169.1      1.774    127.943
      169.1      1.779    137.059
      169.1      1.782    130.512
      169.1      1.785    134.891
      169.1      1.791    127.260
      169.1      1.794    122.534
      169.1      1.800    121.095
      169.1      1.818    122.600
      169.1      1.823    117.514
      169.1      1.830    114.984
      169.1      1.838    111.364
      169.1      1.843    111.742
      169.1      1.846    106.288
      169.1      1.849     90.273
      169.1      1.851     84.452
      169.1      1.858     80.828
      169.1      1.863     71.738
      169.1      1.865     52.078
      169.1      1.868     41.890
      169.1      1.871     22.600
      169.1      1.874     56.109
      169.1      1.875    117.290
      169.1      1.876    167.549
      169.1      1.881    205.070
      169.1      1.884    194.153
      169.1      1.887    174.497
      169.1      1.891    161.761
      169.1      1.895    154.854
      169.1      1.897    159.230
      169.1      1.901    146.130
      169.1      1.908    141.050
      169.1      1.916    133.790
      169.1      1.927    131.270
      169.1      1.937    125.836
      169.1      1.944    124.032
      169.1      1.950    123.684
      169.1      1.955    122.969
      169.1      1.960    122.255
      169.1      1.964    119.353
      169.1      1.975    112.464
      169.1      1.976    110.647
      169.1      1.979    108.470
      169.1      1.984    104.842
      169.1      1.990    110.684
      169.1      1.997    102.326
      169.1      2.004    103.074
      169.1      2.013    101.279
      169.1      2.017    105.294
      169.1      2.023    104.219
      169.1      2.031    104.603
      169.1      2.038    103.166
      169.1      2.042    101.355
      169.1      2.045     98.087
      169.1      2.051    103.201
      169.1      2.054     99.931
      169.1      2.062    105.051
      169.1      2.063     99.957
      169.1      2.068     97.055
      169.1      2.071    100.706
      169.1      2.075     96.713
      169.1      2.081     96.362
      169.1      2.086     98.561
      169.1      2.087     94.195
      169.1      2.091     93.476
      169.1      2.094     94.577
      169.1      2.099     94.590
      169.1      2.102     91.323
      169.1      2.106     97.523
      169.1      2.109     94.255
      169.1      2.112     98.267
      169.1      2.116     97.914
      169.1      2.120     97.198
      169.1      2.126     96.849
      169.1      2.130     91.761
      169.1      2.133     96.505
      169.1      2.140     92.154
      169.1      2.144     97.262
      169.1      2.148     94.359
      169.1      2.154     93.648
      169.1      2.157     91.471
      169.1      2.161     89.298
      169.1      2.164     95.132
      169.1      2.167     94.047
      169.1      2.170     88.593
      169.1      2.174     93.337
      169.1      2.177     95.167
      169.1      2.182     94.815
      169.1      2.184     91.543
      169.1      2.189     90.831
      169.1      2.195     87.205
      169.1      2.199     89.399
      169.1      2.203     85.041
      169.1      2.208     87.238
      169.1      2.213     85.069
      169.1      2.218     85.447
      169.1      2.221     82.541
      169.1      2.225     82.915
      169.1      2.230     82.565
      169.1      2.233     79.295
      169.1      2.235     90.590
      169.1      2.239     85.501
      169.1      2.241     88.422
      169.1      2.246     90.621
      169.1      2.249     85.895
      169.1      2.253     84.448
      169.1      2.254     86.999
      169.1      2.260     79.732
      169.1      2.263     77.192
      169.1      2.266     83.391
      169.1      2.268     80.117
      169.1      2.270     78.668
      169.1      2.274     77.950
      169.1      2.282     75.786
      169.1      2.289     80.540
      169.1      2.293     83.099
      169.1      2.296     77.644
      169.1      2.299     82.022
      169.1      2.303     77.300
      169.1      2.307     76.947
      169.1      2.309     80.230
      169.1      2.314     83.521
      169.1      2.317     80.252
      169.1      2.322     82.815
      169.1      2.323     72.620
      169.1      2.328     81.010
      169.1      2.330     74.097
      169.1      2.334     77.748
      169.1      2.338     75.937
      169.1      2.342     75.949
      169.1      2.346     77.781
      169.1      2.351     79.615
      169.1      2.353     75.614
      169.1      2.357     74.897
      169.1      2.360     68.714
      169.1      2.363     73.456
      169.1      2.369     76.387
      169.1      2.373     72.027
      169.1      2.374     67.661
      169.1      2.378     69.492
      169.1      2.383     74.603
      169.1      2.387     69.151
      169.1      2.391     70.255
      169.1      2.394     73.176
      169.1      2.397     71.729
      169.1      2.402     68.464
      169.1      2.405     72.479
      169.1      2.408     67.389
      169.1      2.413     68.493
      169.1      2.418     68.871
      169.1      2.421     65.603
      169.1      2.424     67.796
      169.1      2.428     68.170
      169.1      2.431     67.085
      169.1      2.435     68.918
      169.1      2.439     71.476
      169.1      2.441     67.479
      169.1      2.448     66.404
      169.1      2.453     68.966
      169.1      2.455     74.070
      169.1      2.459     72.259
      169.1      2.461     68.624
      169.1      2.467     73.737
      169.1      2.469     67.917
      169.1      2.474     73.029
      169.1      2.478     68.669
      169.1      2.482     71.958
      169.1      2.485     69.781
      169.1      2.488     72.704
      169.1      2.493     65.432
      169.1      2.498     73.821
      169.1      2.502     76.018
      169.1      2.505     68.743
      169.1      2.509     67.298
      169.1      2.514     70.587
      169.1      2.516     67.682
      169.1      2.522     64.418
      169.1      2.526     65.522
      169.1      2.530     63.347
      169.1      2.532     66.996
      169.1      2.538     68.104
      169.1      2.544     66.663
      169.1      2.547     69.586
      169.1      2.550     67.772
      169.1      2.554     66.691
      169.1      2.558     64.518
      169.1      2.563     64.531
      169.1      2.569     65.275
      169.1      2.572     66.740
      169.1      2.577     62.019
      169.1      2.581     68.220
      169.1      2.584     64.952
      169.1      2.590     66.060
      169.1      2.591     70.070
      169.1      2.594     71.629
      169.1      2.598     71.624
      169.1      2.604     79.184
      169.1      2.607    108.504
      169.1      2.607     93.368
      169.1      2.609    130.257
      169.1      2.609    139.717
      169.1      2.610    185.121
      169.1      2.615    169.033
      169.1      2.617    106.598
      169.1      2.618     55.516
      169.1      2.622     59.294
      169.1      2.626     65.910
      169.1      2.631     62.120
      169.1      2.632     51.714
      169.1      2.635     43.196
      169.1      2.636     26.167
      169.1      2.637     58.329
      169.1      2.638     19.543
      169.1      2.644     22.373
      169.1      2.644     29.940
      169.1      2.647     42.234
      169.1      2.650     54.527
      169.1      2.651     47.904
      169.1      2.653     42.225
      169.1      2.658     47.894
      169.1      2.659     44.109
      169.1      2.665     49.777
      169.1      2.668     45.988
      169.1      2.673     45.982
      169.1      2.678     47.868
      169.1      2.683     47.861
      169.1      2.686     49.748
      169.1      2.691     51.634
      169.1      2.694     51.630
      169.1      2.699     52.568
      169.1      2.703     52.563
      169.1      2.707     54.450
      169.1      2.711     53.499
      169.1      2.714     54.440
      169.1      2.719     59.163
      169.1      2.724     52.535
      169.1      2.730     55.364
      169.1      2.737     50.626
      169.1      2.741     49.675
      169.1      2.744     51.563
      169.1      2.748     49.664
      169.1      2.753     45.874
      169.1      2.758     45.868
      169.1      2.759     52.487
      169.1      2.764     49.643
      169.1      2.768     50.584
      169.1      2.771     46.796
      169.1      2.774     55.306
      169.1      2.777     54.355
      169.1      2.777     47.733
      169.1      2.781     50.566
      169.1      2.783     47.726
      169.1      2.787     47.721
      169.1      2.789     44.879
      169.1      2.795     42.979
      169.1      2.798     46.759
      169.1      2.804     41.076
      169.1      2.806     45.802
      169.1      2.811     38.228
      169.1      2.811     42.958
      169.1      2.816     39.168
      169.1      2.819     34.433
      169.1      2.824     29.697
      169.1      2.827     19.288
      169.1      2.831     20.229
      169.1      2.836     52.383
      169.1      2.837     39.139
      169.1      2.839     62.785
      169.1      2.842     74.132
      169.1      2.846     74.127
      169.1      2.850     73.175
      169.1      2.853     77.901
      169.1      2.859     76.001
      169.1      2.864     79.779
      169.1      2.866     87.344
      169.1      2.869     85.447
      169.1      2.871     94.904
      169.1      2.873    109.090
      169.1      2.876    124.221
      169.1      2.877    132.734
      169.1      2.878    163.948
      169.1      2.880    221.648
      169.1      2.882    142.185
      169.1      2.886     34.343
      169.1      2.886     75.018
      169.1      2.887     69.342
      169.1      2.890     31.500
      169.1      2.892     37.173
      169.1      2.895     31.494
      169.1      2.896     40.005
      169.1      2.902     43.781
      169.1      2.907     50.396
      169.1      2.911     52.283
      169.1      2.915     53.223
      169.1      2.917     56.058
      169.1      2.919     63.623
      169.1      2.922     55.106
      169.1      2.925     63.615
      169.1      2.925     70.237
      169.1      2.929     73.068
      169.1      2.930     80.635
      169.1      2.932     88.200
      169.1      2.935    107.115
      169.1      2.936    177.113
      169.1      2.937    131.707
      169.1      2.938    284.002
      169.1      2.940    331.296
      169.1      2.946    245.207
      169.1      2.950     90.067
      169.1      2.951     72.093
      169.1      2.952     25.741
      169.1      2.952     46.551
      169.1      2.956     21.951
      169.1      2.957     15.328
      169.1      2.962     20.997
      169.1      2.968     17.206
      169.1      2.971     21.930
      169.1      2.975     22.871
      169.1      2.982     25.700
      169.1      2.986     27.586
      169.1      2.990     27.581
      169.1      2.995     26.628
      169.1      3.001     29.459
      169.1      3.006     29.451
      169.1      3.011     29.445
      169.1      3.016     29.438
      169.1      3.019     32.271
      169.1      3.022     27.538
      169.1      3.024     33.211
      169.1      3.029     30.367
      169.1      3.032     29.417
      169.1      3.036     29.410
      169.1      3.041     32.242
      169.1      3.046     28.452
      169.1      3.050     32.229
      169.1      3.054     33.170
      169.1      3.057     30.328
      169.1      3.062     34.106
      169.1      3.067     34.098
      169.1      3.074     35.035
      169.1      3.076     26.519
      169.1      3.081     36.917
      169.1      3.084     35.021
      169.1      3.089     35.015
      169.1      3.093     39.740
      169.1      3.100     35.946
      169.1      3.101     41.620
      169.1      3.103     41.618
      169.1      3.107     38.775
      169.1      3.110     43.499
      169.1      3.113     47.279
      169.1      3.116     43.492
      169.1      3.120     44.433
      169.1      3.124     45.372
      169.1      3.129     49.150
      169.1      3.134     44.414
      169.1      3.139     51.975
      169.1      3.142     51.970
      169.1      3.148     52.908
      169.1      3.153     61.415
      169.1      3.153     52.902
      169.1      3.155     66.142
      169.1      3.159     66.136
      169.1      3.165     68.966
      169.1      3.168     63.287
      169.1      3.171     68.957
      169.1      3.176     68.951
      169.1      3.181     61.377
      169.1      3.182     66.106
      169.1      3.185     58.534
      169.1      3.187     54.747
      169.1      3.188     62.313
      169.1      3.190     89.743
      169.1      3.192    120.010
      169.1      3.198    126.624
      169.1      3.201    121.891
      169.1      3.201    117.160
      169.1      3.205    109.587
      169.1      3.208    113.367
      169.1      3.211    119.039
      169.1      3.216    120.925
      169.1      3.217    125.653
      169.1      3.220    133.215
      169.1      3.220    167.269
      169.1      3.220    213.621
      169.1      3.227    171.990
      169.1      3.227    216.449
      169.1      3.228    163.475
      169.1      3.228    112.395
      169.1      3.231     87.795
      169.1      3.235     84.006
      169.1      3.242     84.943
      169.1      3.244     93.454
      169.1      3.248     98.178
      169.1      3.252     96.281
      169.1      3.258    105.732
      169.1      3.262     99.105
      169.1      3.268    100.989
      169.1      3.271    105.715
      169.1      3.275     98.142
      169.1      3.276    104.762
      169.1      3.281    101.917
      169.1      3.284    105.697
      169.1      3.288    102.854
      169.1      3.293    114.199
      169.1      3.295    110.411
      169.1      3.299    103.785
      169.1      3.302    117.024
      169.1      3.308    107.557
      169.1      3.310    114.175
      169.1      3.320    115.108
      169.1      3.324    109.426
      169.1      3.329    116.041
      169.1      3.333    107.523
      169.1      3.338    109.408
      169.1      3.341    112.241
      169.1      3.345    112.236
      169.1      3.351    126.418
      169.1      3.355    116.952
      169.1      3.360    107.486
      169.1      3.363    113.158
      169.1      3.369    119.771
      169.1      3.375    111.250
      169.1      3.379    104.623
      169.1      3.381    115.026
      169.1      3.385    116.911
      169.1      3.392    106.497
      169.1      3.397    106.491
      169.1      3.400    114.999
      169.1      3.406    113.100
      169.1      3.414    110.250
      169.1      3.418    116.867
      169.1      3.422    112.132
      169.1      3.427    114.018
      169.1      3.433    115.901
      169.1      3.438    107.381
      169.1      3.443    113.996
      169.1      3.448    108.313
      169.1      3.451    118.714
      169.1      3.456    113.978
      169.1      3.459    108.299
      169.1      3.466    106.397
      169.1      3.470    113.959
      169.1      3.474    114.900
      169.1      3.478    114.894
      169.1      3.484    106.373
      169.1      3.488    112.989
      169.1      3.489    118.664
      169.1      3.493    111.090
      169.1      3.495    105.412
      169.1      3.501    107.296
      169.1      3.501    115.809
      169.1      3.508    114.853
      169.1      3.515    118.628
      169.1      3.521     94.026
      169.1      3.521     63.755
      169.1      3.521    129.972
      169.1      3.523     53.347
      169.1      3.528     61.854
      169.1      3.529     52.393
      169.1      3.530     70.365
      169.1      3.533     81.712
      169.1      3.534     87.387
      169.1      3.536     93.060
      169.1      3.543    102.509
      169.1      3.551     97.769
      169.1      3.559    104.379
      169.1      3.562     98.700
      169.1      3.566    105.315
      169.1      3.568    110.042
      169.1      3.573    106.252
      169.1      3.573    112.874
      169.1      3.579    128.001
      169.1      3.580    149.757
      169.1      3.582    200.835
      169.1      3.583    245.293
      169.1      3.587    162.044
      169.1      3.589    230.149
      169.1      3.590    115.689
      169.1      3.595     94.872
      169.1      3.600     88.243
      169.1      3.604     92.967
      169.1      3.610     95.798
      169.1      3.614     96.737
      169.1      3.619     99.569
      169.1      3.625    101.453
      169.1      3.625     92.939
      169.1      3.631    109.012
      169.1      3.631     95.768
      169.1      3.641     87.242
      169.1      3.647     69.260
      169.1      3.651     49.391
      169.1      3.660     25.729
      169.1      3.664     19.103
      169.1      3.670     25.717
      169.1      3.673     24.766
      169.1      3.679     29.488
      169.1      3.685     27.588
      169.1      3.689     35.149
      169.1      3.694     37.035
      169.1      3.699     51.218
      169.1      3.700    105.135
      169.1      3.702    193.105
      169.1      3.706    167.558
      169.1      3.707     84.314
      169.1      3.707    138.233
      169.1      3.711     62.553
      169.1      3.717     53.084
      169.1      3.719     57.811
      169.1      3.724     52.129
      169.1      3.729     51.177
      169.1      3.732     43.605
      169.1      3.736     49.275
      169.1      3.742     43.592
      169.1      3.747     52.099
      169.1      3.751     49.255
      169.1      3.757     48.301
      169.1      3.759     54.920
      169.1      3.767     52.071
      169.1      3.769     57.744
      169.1      3.775     59.629
      169.1      3.779     67.191
      169.1      3.784     63.400
      169.1      3.786     71.911
      169.1      3.794     73.792
      169.1      3.796     84.194
      169.1      3.802     85.870
      169.1      3.807     91.479
      169.1      3.811    106.420
      169.1      3.816    108.296
      169.1      3.820    117.638
      169.1      3.826    123.249
      169.1      3.831    149.391
      169.1      3.835    138.198
      169.1      3.839    145.673
      169.1      3.845    158.749
      169.1      3.852    148.045
      169.1      3.855    163.518
      169.1      3.861    161.811
      169.1      3.865    173.850
      169.1      3.870    187.608
      169.1      3.879    209.967
      169.1      3.884    213.415
      169.1      3.888    223.733
      169.1      3.892    252.959
      169.1      3.898    263.282
      169.1      3.904    292.510
      169.1      3.908    313.141
      169.1      3.912    342.366
      169.1      3.917    369.875
      169.1      3.921    402.537
      169.1      3.927    392.236
      169.1      3.933    381.934
      169.1      3.937    333.820
      169.1      3.941    254.768
      169.1      3.947    187.752
      169.1      3.950    131.042
      169.1      3.956    108.709
      169.1      3.960     88.094
      169.1      3.966     81.230
      169.1      3.970     74.364
      169.1      3.976     72.655
      169.1      3.980     77.820
      169.1      3.985     77.829
      169.1      3.990     74.400
      169.1      3.995     77.848
      169.1      4.001     76.139
      169.1      4.004     88.176
      169.1      4.009     89.905
      169.1      4.015     86.477
      169.1      4.019     98.516
      169.1      4.024     93.370
      169.1      4.029     98.535
      169.1      4.035     98.546
      169.1      4.038    115.737
      169.1      4.044    107.155
      169.1      4.050     96.855
      169.1      4.053    110.609
      169.1      4.059    119.214
      169.1      4.062    107.189
      169.1      4.068    112.357
      169.1      4.073    120.960
      169.1      4.077    126.122
      169.1      4.082    134.726
      169.1      4.088    131.300
      169.1      4.094    127.874
      169.1      4.097    141.628
      169.1      4.100    153.665
      169.1      4.104    138.205
      169.1      4.110    145.089
      169.1      4.114    150.253
      169.1      4.119    146.824
      169.1      4.120    138.234
      169.1      4.122    129.644
      169.1      4.123    115.897
      169.1      4.128    153.717
      169.1      4.129    117.626
      169.1      4.133    167.475
      169.1      4.134    201.850
      169.1      4.141    208.738
      169.1      4.143    229.365
      169.1      4.147    243.124
      169.1      4.153    250.008
      169.1      4.156    263.764
      169.1      4.162    263.775
      169.1      4.167    294.720
      169.1      4.172    303.322
      169.1      4.176    330.829
      169.1      4.182    349.745
      169.1      4.187    370.379
      169.1      4.191    392.728
      169.1      4.196    404.768
      169.1      4.202    416.810
      169.1      4.208    404.791
      169.1      4.210    430.575
      169.1      4.217    428.869
      169.1      4.222    397.943
      169.1      4.227    384.202
      169.1      4.232    363.587
      169.1      4.237    337.817
      169.1      4.242    298.298
      169.1      4.246    275.963
      169.1      4.252    246.756
      169.1      4.257    200.361
      169.1      4.261    174.589
      169.1      4.265    152.254
      169.1      4.270    129.921
      169.1      4.275    133.367
      169.1      4.280    136.814
      169.1      4.286    138.543
      169.1      4.290    152.301
      169.1      4.296    152.311
      169.1      4.301    157.477
      169.1      4.305    154.047
      169.1      4.312    155.778
      169.1      4.319    155.791
      169.1      4.323    160.955
      169.1      4.327    160.963
      169.1      4.332    160.972
      169.1      4.337    164.418
      169.1      4.339    150.673
      169.1      4.341    179.894
      169.1      4.345    159.277
      169.1      4.346    174.748
      169.1      4.352    161.009
      169.1      4.354    174.762
      169.1      4.358    183.363
      169.1      4.364    174.781
      169.1      4.368    185.100
      169.1      4.373    190.266
      169.1      4.377    202.304
      169.1      4.385    204.037
      169.1      4.388    209.199
      169.1      4.396    217.808
      169.1      4.396    234.994
      169.1      4.402    231.568
      169.1      4.405    245.324
      169.1      4.408    262.515
      169.1      4.411    288.300
      169.1      4.415    279.715
      169.1      4.420    274.569
      169.1      4.424    298.636
      169.1      4.424    315.824
      169.1      4.428    336.454
      169.1      4.433    350.214
      169.1      4.435    363.967
      169.1      4.438    382.877
      169.1      4.442    441.321
      169.1      4.446    418.984
      169.1      4.448    455.081
      169.1      4.456    491.187
      169.1      4.459    549.626
      169.1      4.465    589.168
      169.1      4.476    654.498
      169.1      4.479    675.128
      169.1      4.483    704.351
      169.1      4.485    719.824
      169.1      4.488    731.860
      169.1      4.491    723.272
      169.1      4.495    716.405
      169.1      4.501    697.511
      169.1      4.503    678.609
      169.1      4.507    676.898
      169.1      4.513    633.943
      169.1      4.522    615.054
      169.1      4.525    572.092
      169.1      4.532    558.357
      169.1      4.535    529.146
      169.1      4.541    510.252
      169.1      4.547    493.075
      169.1      4.552    439.807
      169.1      4.556    403.722
      169.1      4.562    298.894
      169.1      4.566    242.187
      169.1      4.571    197.510
      169.1      4.578    190.648
      169.1      4.582    159.720
      169.1      4.587    151.137
      169.1      4.593    161.460
      169.1      4.603    156.323
      169.1      4.608    158.050
      169.1      4.614    164.935
      169.1      4.619    173.538
      169.1      4.626    176.988
      169.1      4.630    164.966
      169.1      4.635    175.287
      169.1      4.641    183.891
      169.1      4.645    178.743
      169.1      4.649    189.063
      169.1      4.656    187.357
      169.1      4.661    194.242
      169.1      4.666    197.688
      169.1      4.671    206.290
      169.1      4.678    220.052
      169.1      4.682    232.091
      169.1      4.687    259.599
      169.1      4.693    249.298
      169.1      4.697    276.804
      169.1      4.703    108.386
      169.1      4.713     56.845
      169.1      4.718     46.542
      169.1      4.723     43.115
      169.1      4.728     44.842
      169.1      4.729     56.875
      169.1      4.734     55.166
      169.1      4.738     65.484
      169.1      4.741     75.802
      169.1      4.747     89.563
      169.1      4.751     75.821
      169.1      4.754     86.138
      169.1      4.758     94.739
      169.1      4.762    103.340
      169.1      4.766    113.661
      169.1      4.773    123.984
      169.1      4.776    106.803
      169.1      4.777     84.463
      169.1      4.779     68.999
      169.1      4.782     87.909
      169.1      4.786     94.792
      169.1      4.788    111.982
      169.1      4.791    137.768
      169.1      4.795    125.744
      169.1      4.797    142.934
      169.1      4.800    139.324
      169.1      4.804    140.382
      169.1      4.812    140.405
      169.1      4.820    154.051
      169.1      4.827    150.927
      169.1      4.831    163.515
      169.1      4.832    151.990
      169.1      4.838    159.342
      169.1      4.842    150.970
      169.1      4.847    167.752
      169.1      4.853    171.961
      169.1      4.856    160.442
      169.1      4.863    174.084
      169.1      4.868    174.099
      169.1      4.871    163.628
      169.1      4.873    180.401
      169.1      4.875    167.831
      169.1      4.880    168.893
      169.1      4.886    175.199
      169.1      4.890    176.257
      169.1      4.895    179.415
      169.1      4.897    173.134
      169.1      4.901    172.097
      169.1      4.905    172.107
      169.1      4.907    180.498
      169.1      4.910    176.315
      169.1      4.914    171.085
      169.1      4.917    179.478
      169.1      4.920    180.535
      169.1      4.925    182.645
      169.1      4.930    181.610
      169.1      4.934    188.958
      169.1      4.939    194.212
      169.1      4.941    184.787
      169.1      4.946    185.849
      169.1      4.949    192.145
      169.1      4.954    196.352
      169.1      4.957    194.264
      169.1      4.961    193.229
      169.1      4.966    192.193
      169.1      4.970    192.207
      169.1      4.974    189.072
      169.1      4.977    188.033
      169.1      4.982    191.191
      169.1      4.987    192.253
      169.1      4.991    194.360
      169.1      4.995    196.467
      169.1      4.998    212.198
      169.1      4.998    196.478
      169.1      5.002    224.785
      169.1      5.005    209.072
      169.1      5.007    201.743
      169.1      5.011    184.985
      169.1      5.014    192.332
      169.1      5.015    200.718
      169.1      5.020    207.018
      169.1      5.022    193.402
      169.1      5.024    175.592
      169.1      5.027    180.839
      169.1      5.031    185.042
      169.1      5.034    174.571
      169.1      5.041    167.256
      169.1      5.044    178.793
      169.1      5.050    165.186
      169.1      5.052    177.767
      169.1      5.057    155.775
      169.1      5.063    155.792
      169.1      5.069    147.425
      169.1      5.073    136.957
      169.1      5.079    132.782
      169.1      5.084    119.173
      169.1      5.091    112.904
      169.1      5.096     98.247
      169.1      5.100     90.921
      169.1      5.102     81.495
      169.1      5.104     72.069
      169.1      5.108     62.649
      169.1      5.111     73.139
      169.1      5.114     87.818
      169.1      5.117     89.923
      169.1      5.119     68.969
      169.1      5.122     62.691
      169.1      5.126     59.557
      169.1      5.129     46.991
      169.1      5.134     42.813
      169.1      5.142     39.690
      169.1      5.145     43.892
      169.1      5.151     61.724
      169.1      5.156     79.554
      169.1      5.161     91.097
      169.1      5.167    117.313
      169.1      5.173    140.386
      169.1      5.178    159.263
      169.1      5.184    183.383
      169.1      5.189    201.214
      169.1      5.194    236.859
      169.1      5.200    256.788
      169.1      5.206    243.179
      169.1      5.213    281.974
      169.1      5.217    330.193
      169.1      5.218    365.829
      169.1      5.221    442.338
      169.1      5.227    448.643
      169.1      5.229    410.922
      169.1      5.235    393.124
      169.1      5.240    404.667
      169.1      5.242    425.631
      169.1      5.247    422.502
      169.1      5.251    419.370
      169.1      5.255    391.086
      169.1      5.262    291.547
      169.1      5.267    231.825
      169.1      5.273    185.733
      169.1      5.275    168.971
      169.1      5.279    155.358
      169.1      5.283    171.090
      169.1      5.287    178.437
      169.1      5.288    118.705
      169.1      5.297     47.468
      169.1      5.301     52.720
      169.1      5.307     65.312
      169.1      5.314     69.525
      169.1      5.318     78.968
      169.1      5.326     82.135
      169.1      5.333     86.346
      169.1      5.339     94.746
      169.1      5.344     97.905
      169.1      5.349    102.112
      169.1      5.354    105.270
      169.1      5.359    110.523
      169.1      5.362    101.100
      169.1      5.368     97.973
      169.1      5.373    102.180
      169.1      5.378    102.193
      169.1      5.382    103.254
      169.1      5.387    104.316
      169.1      5.392    104.330
      169.1      5.397    103.297
      169.1      5.403    105.409
      169.1      5.408    104.375
      169.1      5.416    103.349
      169.1      5.424    104.419
      169.1      5.428    103.385
      169.1      5.434    102.354
      169.1      5.440    102.369
      169.1      5.444    100.287
      169.1      5.450    102.399
      169.1      5.454     99.267
      169.1      5.460    100.331
      169.1      5.467    100.350
      169.1      5.472    104.557
      169.1      5.478    120.293
      169.1      5.485    107.738
ENDDATA           3909
ENDSUBENT         3933
SUBENT        C0755003   20240618   20241027   20241027       C239
SUBENT        C0755004   20240618   20241027   20241027       C239
SUBENT        C0755005   20240618   20241027   20241027       C239
SUBENT        C0755006   20240618   20241027   20241027       C239
SUBENT        C0755007   20240618   20241027   20241027       C239
SUBENT        C0755008   20240618   20241027   20241027       C239
BIB                  3         10
REACTION  1(7-N-15(A,0),,EN)
          2(7-N-15(A,0),,J)
          3(7-N-15(A,0),,PTY)
          4(7-N-15(A,EL),,WID)
ANALYSIS   (SHAPE) A phase-shift analysis of the cross-section
           curve from 1.85 MeV to 4.00 MeV yielded the values
           for the resonant energies, spins and parities and
           reduced widths of the levels in this energy range.
STATUS     (TABLE,,H.Smotrich+,J,PR,122,232,1961)
           Table II, page 239 of J,PR,122,232,1961.
ENDBIB              10
NOCOMMON             0          0
DATA                 5         16
DATA      1DATA      2DATA      3DATA      4DATA-APRX 4
MEV        NO-DIM     NO-DIM     KEV        KEV
      1.878        1.5         1.         4.
      2.614        2.5         1.        1.5
      2.635        2.5        -1.         5.
      2.833        0.5         1.        10.
      2.883        2.5         1.         3.
      2.944        3.5         1.         3.
       3.07        0.5        -1.       358.
      3.194        0.5         1.         5.
      3.229        2.5         1.         2.
      3.525        1.5        -1.         3.
      3.587        2.5         1.        1.5
      3.648        2.5        -1.        35.
      3.705        4.5        -1.         3.
       3.78        0.5        -1.        64.
       3.92        3.5         1.                   40.
       3.94        1.5         1.                   10.
ENDDATA             18
ENDSUBENT           33
SUBENT        C0755009   20240618   20241027   20241027       C239
BIB                  4         10
REACTION  1(7-N-15(A,0),,EN)
          2(7-N-15(A,EL),,WID)
STATUS     (TABLE,,H.Smotrich+,J,PR,122,232,1961)
           Table III, page 240 of J,PR,122,232,1961.
FLAG       (1.) Uncertain level.
COMMENT    Summary of positions of levels observed for which no
           spin and parity assignments have been made. The level
           widths are estimated from the data. They have not
           been corrected for beam energy spread and target
           thickness.
ENDBIB              10
NOCOMMON             0          0
DATA                 3         15
DATA      1DATA      2FLAG
MEV        KEV        NO-DIM
      4.127         8.
       4.22        80.
       4.49        90.
       4.53                    1.
      4.700        30.
      4.780         8.
       4.93       260.
      5.005         8.         1.
      5.018         5.         1.
      5.116         8.
      5.203         8.
      5.232         6.
       5.25        65.
      5.284        10.
      5.481        10.
ENDDATA             17
ENDSUBENT           32
SUBENT        C0755010   20240618   20241027   20241027       C239
BIB                  4         22
REACTION  1(7-N-15(A,0),,EN)
          2(7-N-15(A,0),,J)
          3(7-N-15(A,0),,PTY)
          4(7-N-15(A,EL),,WID/RED)
          5(7-N-15(A,EL),,WID)
ANALYSIS   (MLA) The computer code MULTI, which employs the
           multi-level, multi-channel formalism of R-matrix
           theory was used by the University of Florida group in
           the calculation of the excitation functions measured
           previously by the Columbia University group. The spin
           and parity, the reduced width, and resonance energy
           for each of the resonances were taken as adjustable
           parameters.
STATUS     (DEP,C0755002)
           (DEP,C0755003)
           (DEP,C0755004)
           (DEP,C0755005)
           (DEP,C0755006)
           (DEP,C0755007)
           (TABLE,,H.Smotrich+,J,PR,122,232,1961)
           Table I, page 156 of J,NP/A,198,153,1972.
HISTORY    (20240618C) BP
ENDBIB              22
NOCOMMON             0          0
DATA                 6          6
DATA      1DATA      2DATA      3MOMENTUM L DATA      4DATA      5
MEV        NO-DIM     NO-DIM     NO-DIM     MEV        KEV
       3.78        0.5        -1.         0.      0.025       51.0
       3.94        3.5        +1.         3.      0.080       32.0
       4.23        3.5        +1.         3.      0.110       65.0
       4.49        3.5        +1.         3.      0.108       85.0
       4.53        2.5        +1.         3.      0.049       40.0
       4.72        0.5        -1.         0.      0.009       30.0
ENDDATA              8
ENDSUBENT           35
ENDENTRY            10
