ENTRY            C0755   20130627   20140110   20131212       C133
SUBENT        C0755001   20130627   20140110   20131212       C133
BIB                 12         32
TITLE      Elastic scattering of alpha particles by N15
AUTHOR     (H.Smotrich,K.W.Jones,L.C.Mcdermott,R.E.Benenson)
REFERENCE  (J,PR,122,232,1961)
           #doi:10.1103/PhysRev.122.232
INSTITUTE  (1USACOL)
FACILITY   (VDG,1USACOL)
SAMPLE     (7-N-15,ENR=0.95) Nitrogen gas sample, 15N
           concentration averaged 95 atom percent. Major
           contaminants were 16O and 14N. The target thicknesses
           were varied  in the range from 2 to 4 kev depending on
           the cross section.
DETECTOR   (CSICR) 2-3 mils thick CsI(Tl) crystal mounted on a
           Dumont 6291 photomultiplier tube.
PART-DET   (A)
MONITOR    Beam energy calibrated using 7Li(p,n)7Be threshold
           energy.
METHOD     (BCINT,ASPEC) Excitation curves were run at six
           angles in energy steps from 2 to 5 keV and covered
           the energy range from 1.75 to 5.50 MeV. The selection
           of the scattering angles was governed by the
           dependence of the coherent scattering amplitude on
           the orbital angular momentum L. This procedure was
           followed since it is possible to obtain an indication
           of the L value responsible for a particular resonance
           by the disappearance of an anomaly in the excitation
           curve at the scattering angle corresponding to a zero
           of the Legendre polynomial.
ERR-ANALYS (EN-ERR) Approximate uncertainty in energy scale.
HISTORY    (20001201C) VM
           (20130627A) BP: Corrections according last EXFOR rules
           and Dict. Updated bib section, digitized Fig. 3-6,
           added table resonance data.
ENDBIB              32
COMMON               2          3
EN-ERR     EN-RSL
PER-CENT   PER-CENT
0.1        0.1
ENDCOMMON            3
ENDSUBENT           39
SUBENT        C0755002   20130627   20140110   20131212       C133
BIB                  4         14
REACTION   (7-N-15(A,EL)7-N-15,,DA)
STATUS     (CURVE) Figs. 3-6 of reference.
ERR-ANALYS (ERR-T) The average over-all rms error on the
           measured cross sections is estimated at about 6.2%.
           (ERR-S)counting statistics, average 3.0%.
           (ERR-1) geometry, 0.28%.
           (ERR-2) uncertainty in background, average 1.0%.
           (ERR-3,,1.3) maximum angular uncertainty, maximum 1.3%.
           (ERR-4) current integration, 0.7%.
           (ERR-5) gas pressure, average 0.5%.
           (ERR-6,,5.0) target gas impurities, maximum 5.0%.
           (ERR-7,,0.2) maximum error in scattering angle 0.2 deg.
HISTORY    (20130710C) Replaced sigma database data with the
           digitized data, corrected data units and reaction code.
ENDBIB              14
COMMON               7          6
ANG-CM     ERR-T      ERR-S      ERR-1      ERR-2      ERR-4
ERR-5
ADEG       PER-CENT   PER-CENT   PER-CENT   PER-CENT   PER-CENT
PER-CENT
169.1      6.2        3.0        0.28       1.0        0.7
0.5
ENDCOMMON            6
DATA                 2        909
EN         DATA-CM
MEV        MB/SR
      1.745    135.876
      1.749    134.429
      1.750    139.165
      1.750    130.790
      1.753    141.358
      1.754    130.802
      1.755    138.815
      1.755    134.809
      1.756    127.166
      1.758    128.993
      1.761    133.370
      1.765    135.565
      1.769    136.669
      1.772    130.486
      1.774    127.943
      1.779    137.059
      1.782    130.512
      1.785    134.891
      1.791    127.260
      1.794    122.534
      1.800    121.095
      1.818    122.600
      1.823    117.514
      1.830    114.984
      1.838    111.364
      1.843    111.742
      1.846    106.288
      1.849     90.273
      1.851     84.452
      1.858     80.828
      1.863     71.738
      1.865     52.078
      1.868     41.890
      1.871     22.600
      1.874     56.109
      1.875    117.290
      1.876    167.549
      1.881    205.070
      1.884    194.153
      1.887    174.497
      1.891    161.761
      1.895    154.854
      1.897    159.230
      1.901    146.130
      1.908    141.050
      1.916    133.790
      1.927    131.270
      1.937    125.836
      1.944    124.032
      1.950    123.684
      1.955    122.969
      1.960    122.255
      1.964    119.353
      1.975    112.464
      1.976    110.647
      1.979    108.470
      1.984    104.842
      1.990    110.684
      1.997    102.326
      2.004    103.074
      2.013    101.279
      2.017    105.294
      2.023    104.219
      2.031    104.603
      2.038    103.166
      2.042    101.355
      2.045     98.087
      2.051    103.201
      2.054     99.931
      2.062    105.051
      2.063     99.957
      2.068     97.055
      2.071    100.706
      2.075     96.713
      2.081     96.362
      2.086     98.561
      2.087     94.195
      2.091     93.476
      2.094     94.577
      2.099     94.590
      2.102     91.323
      2.106     97.523
      2.109     94.255
      2.112     98.267
      2.116     97.914
      2.120     97.198
      2.126     96.849
      2.130     91.761
      2.133     96.505
      2.140     92.154
      2.144     97.262
      2.148     94.359
      2.154     93.648
      2.157     91.471
      2.161     89.298
      2.164     95.132
      2.167     94.047
      2.170     88.593
      2.174     93.337
      2.177     95.167
      2.182     94.815
      2.184     91.543
      2.189     90.831
      2.195     87.205
      2.199     89.399
      2.203     85.041
      2.208     87.238
      2.213     85.069
      2.218     85.447
      2.221     82.541
      2.225     82.915
      2.230     82.565
      2.233     79.295
      2.235     90.590
      2.239     85.501
      2.241     88.422
      2.246     90.621
      2.249     85.895
      2.253     84.448
      2.254     86.999
      2.260     79.732
      2.263     77.192
      2.266     83.391
      2.268     80.117
      2.270     78.668
      2.274     77.950
      2.282     75.786
      2.289     80.540
      2.293     83.099
      2.296     77.644
      2.299     82.022
      2.303     77.300
      2.307     76.947
      2.309     80.230
      2.314     83.521
      2.317     80.252
      2.322     82.815
      2.323     72.620
      2.328     81.010
      2.330     74.097
      2.334     77.748
      2.338     75.937
      2.342     75.949
      2.346     77.781
      2.351     79.615
      2.353     75.614
      2.357     74.897
      2.360     68.714
      2.363     73.456
      2.369     76.387
      2.373     72.027
      2.374     67.661
      2.378     69.492
      2.383     74.603
      2.387     69.151
      2.391     70.255
      2.394     73.176
      2.397     71.729
      2.402     68.464
      2.405     72.479
      2.408     67.389
      2.413     68.493
      2.418     68.871
      2.421     65.603
      2.424     67.796
      2.428     68.170
      2.431     67.085
      2.435     68.918
      2.439     71.476
      2.441     67.479
      2.448     66.404
      2.453     68.966
      2.455     74.070
      2.459     72.259
      2.461     68.624
      2.467     73.737
      2.469     67.917
      2.474     73.029
      2.478     68.669
      2.482     71.958
      2.485     69.781
      2.488     72.704
      2.493     65.432
      2.498     73.821
      2.502     76.018
      2.505     68.743
      2.509     67.298
      2.514     70.587
      2.516     67.682
      2.522     64.418
      2.526     65.522
      2.530     63.347
      2.532     66.996
      2.538     68.104
      2.544     66.663
      2.547     69.586
      2.550     67.772
      2.554     66.691
      2.558     64.518
      2.563     64.531
      2.569     65.275
      2.572     66.740
      2.577     62.019
      2.581     68.220
      2.584     64.952
      2.590     66.060
      2.591     70.070
      2.594     71.629
      2.598     71.624
      2.604     79.184
      2.607    108.504
      2.607     93.368
      2.609    130.257
      2.609    139.717
      2.610    185.121
      2.615    169.033
      2.617    106.598
      2.618     55.516
      2.622     59.294
      2.626     65.910
      2.631     62.120
      2.632     51.714
      2.635     43.196
      2.636     26.167
      2.637     58.329
      2.638     19.543
      2.644     22.373
      2.644     29.940
      2.647     42.234
      2.650     54.527
      2.651     47.904
      2.653     42.225
      2.658     47.894
      2.659     44.109
      2.665     49.777
      2.668     45.988
      2.673     45.982
      2.678     47.868
      2.683     47.861
      2.686     49.748
      2.691     51.634
      2.694     51.630
      2.699     52.568
      2.703     52.563
      2.707     54.450
      2.711     53.499
      2.714     54.440
      2.719     59.163
      2.724     52.535
      2.730     55.364
      2.737     50.626
      2.741     49.675
      2.744     51.563
      2.748     49.664
      2.753     45.874
      2.758     45.868
      2.759     52.487
      2.764     49.643
      2.768     50.584
      2.771     46.796
      2.774     55.306
      2.777     47.733
      2.777     54.355
      2.781     50.566
      2.783     47.726
      2.787     47.721
      2.789     44.879
      2.795     42.979
      2.798     46.759
      2.804     41.076
      2.806     45.802
      2.811     38.228
      2.811     42.958
      2.816     39.168
      2.819     34.433
      2.824     29.697
      2.827     19.288
      2.831     20.229
      2.836     52.383
      2.837     39.139
      2.839     62.785
      2.842     74.132
      2.846     74.127
      2.850     73.175
      2.853     77.901
      2.859     76.001
      2.864     79.779
      2.866     87.344
      2.869     85.447
      2.871     94.904
      2.873    109.090
      2.876    124.221
      2.877    132.734
      2.878    163.948
      2.880    221.648
      2.882    142.185
      2.886     34.343
      2.886     75.018
      2.887     69.342
      2.890     31.500
      2.892     37.173
      2.895     31.494
      2.896     40.005
      2.902     43.781
      2.907     50.396
      2.911     52.283
      2.915     53.223
      2.917     56.058
      2.919     63.623
      2.922     55.106
      2.925     63.615
      2.925     70.237
      2.929     73.068
      2.930     80.635
      2.932     88.200
      2.935    107.115
      2.936    177.113
      2.937    131.707
      2.938    284.002
      2.940    331.296
      2.946    245.207
      2.950     90.067
      2.951     72.093
      2.952     25.741
      2.952     46.551
      2.956     21.951
      2.957     15.328
      2.962     20.997
      2.968     17.206
      2.971     21.930
      2.975     22.871
      2.982     25.700
      2.986     27.586
      2.990     27.581
      2.995     26.628
      3.001     29.459
      3.006     29.451
      3.011     29.445
      3.016     29.438
      3.019     32.271
      3.022     27.538
      3.024     33.211
      3.029     30.367
      3.032     29.417
      3.036     29.410
      3.041     32.242
      3.046     28.452
      3.050     32.229
      3.054     33.170
      3.057     30.328
      3.062     34.106
      3.067     34.098
      3.074     35.035
      3.076     26.519
      3.081     36.917
      3.084     35.021
      3.089     35.015
      3.093     39.740
      3.100     35.946
      3.101     41.620
      3.103     41.618
      3.107     38.775
      3.110     43.499
      3.113     47.279
      3.116     43.492
      3.120     44.433
      3.124     45.372
      3.129     49.150
      3.134     44.414
      3.139     51.975
      3.142     51.970
      3.148     52.908
      3.153     52.902
      3.153     61.415
      3.155     66.142
      3.159     66.136
      3.165     68.966
      3.168     63.287
      3.171     68.957
      3.176     68.951
      3.181     61.377
      3.182     66.106
      3.185     58.534
      3.187     54.747
      3.188     62.313
      3.190     89.743
      3.192    120.010
      3.198    126.624
      3.201    121.891
      3.201    117.160
      3.205    109.587
      3.208    113.367
      3.211    119.039
      3.216    120.925
      3.217    125.653
      3.220    133.215
      3.220    167.269
      3.220    213.621
      3.227    171.990
      3.227    216.449
      3.228    112.395
      3.228    163.475
      3.231     87.795
      3.235     84.006
      3.242     84.943
      3.244     93.454
      3.248     98.178
      3.252     96.281
      3.258    105.732
      3.262     99.105
      3.268    100.989
      3.271    105.715
      3.275     98.142
      3.276    104.762
      3.281    101.917
      3.284    105.697
      3.288    102.854
      3.293    114.199
      3.295    110.411
      3.299    103.785
      3.302    117.024
      3.308    107.557
      3.310    114.175
      3.320    115.108
      3.324    109.426
      3.329    116.041
      3.333    107.523
      3.338    109.408
      3.341    112.241
      3.345    112.236
      3.351    126.418
      3.355    116.952
      3.360    107.486
      3.363    113.158
      3.369    119.771
      3.375    111.250
      3.379    104.623
      3.381    115.026
      3.385    116.911
      3.392    106.497
      3.397    106.491
      3.400    114.999
      3.406    113.100
      3.414    110.250
      3.418    116.867
      3.422    112.132
      3.427    114.018
      3.433    115.901
      3.438    107.381
      3.443    113.996
      3.448    108.313
      3.451    118.714
      3.456    113.978
      3.459    108.299
      3.466    106.397
      3.470    113.959
      3.474    114.900
      3.478    114.894
      3.484    106.373
      3.488    112.989
      3.489    118.664
      3.493    111.090
      3.495    105.412
      3.501    107.296
      3.501    115.809
      3.508    114.853
      3.515    118.628
      3.521     94.026
      3.521    129.972
      3.521     63.755
      3.523     53.347
      3.528     61.854
      3.529     52.393
      3.530     70.365
      3.533     81.712
      3.534     87.387
      3.536     93.060
      3.543    102.509
      3.551     97.769
      3.559    104.379
      3.562     98.700
      3.566    105.315
      3.568    110.042
      3.573    106.252
      3.573    112.874
      3.579    128.001
      3.580    149.757
      3.582    200.835
      3.583    245.293
      3.587    162.044
      3.589    230.149
      3.590    115.689
      3.595     94.872
      3.600     88.243
      3.604     92.967
      3.610     95.798
      3.614     96.737
      3.619     99.569
      3.625     92.939
      3.625    101.453
      3.631     95.768
      3.631    109.012
      3.641     87.242
      3.647     69.260
      3.651     49.391
      3.660     25.729
      3.664     19.103
      3.670     25.717
      3.673     24.766
      3.679     29.488
      3.685     27.588
      3.689     35.149
      3.694     37.035
      3.699     51.218
      3.700    105.135
      3.702    193.105
      3.706    167.558
      3.707     84.314
      3.707    138.233
      3.711     62.553
      3.717     53.084
      3.719     57.811
      3.724     52.129
      3.729     51.177
      3.732     43.605
      3.736     49.275
      3.742     43.592
      3.747     52.099
      3.751     49.255
      3.757     48.301
      3.759     54.920
      3.767     52.071
      3.769     57.744
      3.775     59.629
      3.779     67.191
      3.784     63.400
      3.786     71.911
      3.794     73.792
      3.796     84.194
      3.802     85.870
      3.807     91.479
      3.811    106.420
      3.816    108.296
      3.820    117.638
      3.826    123.249
      3.831    149.391
      3.835    138.198
      3.839    145.673
      3.845    158.749
      3.852    148.045
      3.855    163.518
      3.861    161.811
      3.865    173.850
      3.870    187.608
      3.879    209.967
      3.884    213.415
      3.888    223.733
      3.892    252.959
      3.898    263.282
      3.904    292.510
      3.908    313.141
      3.912    342.366
      3.917    369.875
      3.921    402.537
      3.927    392.236
      3.933    381.934
      3.937    333.820
      3.941    254.768
      3.947    187.752
      3.950    131.042
      3.956    108.709
      3.960     88.094
      3.966     81.230
      3.970     74.364
      3.976     72.655
      3.980     77.820
      3.985     77.829
      3.990     74.400
      3.995     77.848
      4.001     76.139
      4.004     88.176
      4.009     89.905
      4.015     86.477
      4.019     98.516
      4.024     93.370
      4.029     98.535
      4.035     98.546
      4.038    115.737
      4.044    107.155
      4.050     96.855
      4.053    110.609
      4.059    119.214
      4.062    107.189
      4.068    112.357
      4.073    120.960
      4.077    126.122
      4.082    134.726
      4.088    131.300
      4.094    127.874
      4.097    141.628
      4.100    153.665
      4.104    138.205
      4.110    145.089
      4.114    150.253
      4.119    146.824
      4.120    138.234
      4.122    129.644
      4.123    115.897
      4.128    153.717
      4.129    117.626
      4.133    167.475
      4.134    201.850
      4.141    208.738
      4.143    229.365
      4.147    243.124
      4.153    250.008
      4.156    263.764
      4.162    263.775
      4.167    294.720
      4.172    303.322
      4.176    330.829
      4.182    349.745
      4.187    370.379
      4.191    392.728
      4.196    404.768
      4.202    416.810
      4.208    404.791
      4.210    430.575
      4.217    428.869
      4.222    397.943
      4.227    384.202
      4.232    363.587
      4.237    337.817
      4.242    298.298
      4.246    275.963
      4.252    246.756
      4.257    200.361
      4.261    174.589
      4.265    152.254
      4.270    129.921
      4.275    133.367
      4.280    136.814
      4.286    138.543
      4.290    152.301
      4.296    152.311
      4.301    157.477
      4.305    154.047
      4.312    155.778
      4.319    155.791
      4.323    160.955
      4.327    160.963
      4.332    160.972
      4.337    164.418
      4.339    150.673
      4.341    179.894
      4.345    159.277
      4.346    174.748
      4.352    161.009
      4.354    174.762
      4.358    183.363
      4.364    174.781
      4.368    185.100
      4.373    190.266
      4.377    202.304
      4.385    204.037
      4.388    209.199
      4.396    234.994
      4.396    217.808
      4.402    231.568
      4.405    245.324
      4.408    262.515
      4.411    288.300
      4.415    279.715
      4.420    274.569
      4.424    298.636
      4.424    315.824
      4.428    336.454
      4.433    350.214
      4.435    363.967
      4.438    382.877
      4.442    441.321
      4.446    418.984
      4.448    455.081
      4.456    491.187
      4.459    549.626
      4.465    589.168
      4.476    654.498
      4.479    675.128
      4.483    704.351
      4.485    719.824
      4.488    731.860
      4.491    723.272
      4.495    716.405
      4.501    697.511
      4.503    678.609
      4.507    676.898
      4.513    633.943
      4.522    615.054
      4.525    572.092
      4.532    558.357
      4.535    529.146
      4.541    510.252
      4.547    493.075
      4.552    439.807
      4.556    403.722
      4.562    298.894
      4.566    242.187
      4.571    197.510
      4.578    190.648
      4.582    159.720
      4.587    151.137
      4.593    161.460
      4.603    156.323
      4.608    158.050
      4.614    164.935
      4.619    173.538
      4.626    176.988
      4.630    164.966
      4.635    175.287
      4.641    183.891
      4.645    178.743
      4.649    189.063
      4.656    187.357
      4.661    194.242
      4.666    197.688
      4.671    206.290
      4.678    220.052
      4.682    232.091
      4.687    259.599
      4.693    249.298
      4.697    276.804
      4.703    108.386
      4.713     56.845
      4.718     46.542
      4.723     43.115
      4.728     44.842
      4.729     56.875
      4.734     55.166
      4.738     65.484
      4.741     75.802
      4.747     89.563
      4.751     75.821
      4.754     86.138
      4.758     94.739
      4.762    103.340
      4.766    113.661
      4.773    123.984
      4.776    106.803
      4.777     84.463
      4.779     68.999
      4.782     87.909
      4.786     94.792
      4.788    111.982
      4.791    137.768
      4.795    125.744
      4.797    142.934
      4.800    139.324
      4.804    140.382
      4.812    140.405
      4.820    154.051
      4.827    150.927
      4.831    163.515
      4.832    151.990
      4.838    159.342
      4.842    150.970
      4.847    167.752
      4.853    171.961
      4.856    160.442
      4.863    174.084
      4.868    174.099
      4.871    163.628
      4.873    180.401
      4.875    167.831
      4.880    168.893
      4.886    175.199
      4.890    176.257
      4.895    179.415
      4.897    173.134
      4.901    172.097
      4.905    172.107
      4.907    180.498
      4.910    176.315
      4.914    171.085
      4.917    179.478
      4.920    180.535
      4.925    182.645
      4.930    181.610
      4.934    188.958
      4.939    194.212
      4.941    184.787
      4.946    185.849
      4.949    192.145
      4.954    196.352
      4.957    194.264
      4.961    193.229
      4.966    192.193
      4.970    192.207
      4.974    189.072
      4.977    188.033
      4.982    191.191
      4.987    192.253
      4.991    194.360
      4.995    196.467
      4.998    212.198
      4.998    196.478
      5.002    224.785
      5.005    209.072
      5.007    201.743
      5.011    184.985
      5.014    192.332
      5.015    200.718
      5.020    207.018
      5.022    193.402
      5.024    175.592
      5.027    180.839
      5.031    185.042
      5.034    174.571
      5.041    167.256
      5.044    178.793
      5.050    165.186
      5.052    177.767
      5.057    155.775
      5.063    155.792
      5.069    147.425
      5.073    136.957
      5.079    132.782
      5.084    119.173
      5.091    112.904
      5.096     98.247
      5.100     90.921
      5.102     81.495
      5.104     72.069
      5.108     62.649
      5.111     73.139
      5.114     87.818
      5.117     89.923
      5.119     68.969
      5.122     62.691
      5.126     59.557
      5.129     46.991
      5.134     42.813
      5.142     39.690
      5.145     43.892
      5.151     61.724
      5.156     79.554
      5.161     91.097
      5.167    117.313
      5.173    140.386
      5.178    159.263
      5.184    183.383
      5.189    201.214
      5.194    236.859
      5.200    256.788
      5.206    243.179
      5.213    281.974
      5.217    330.193
      5.218    365.829
      5.221    442.338
      5.227    448.643
      5.229    410.922
      5.235    393.124
      5.240    404.667
      5.242    425.631
      5.247    422.502
      5.251    419.370
      5.255    391.086
      5.262    291.547
      5.267    231.825
      5.273    185.733
      5.275    168.971
      5.279    155.358
      5.283    171.090
      5.287    178.437
      5.288    118.705
      5.297     47.468
      5.301     52.720
      5.307     65.312
      5.314     69.525
      5.318     78.968
      5.326     82.135
      5.333     86.346
      5.339     94.746
      5.344     97.905
      5.349    102.112
      5.354    105.270
      5.359    110.523
      5.362    101.100
      5.368     97.973
      5.373    102.180
      5.378    102.193
      5.382    103.254
      5.387    104.316
      5.392    104.330
      5.397    103.297
      5.403    105.409
      5.408    104.375
      5.416    103.349
      5.424    104.419
      5.428    103.385
      5.434    102.354
      5.440    102.369
      5.444    100.287
      5.450    102.399
      5.454     99.267
      5.460    100.331
      5.467    100.350
      5.472    104.557
      5.478    120.293
      5.485    107.738
ENDDATA            911
ENDSUBENT          937
SUBENT        C0755003   20130710   20140110   20131212       C133
BIB                  3         12
REACTION   (7-N-15(A,EL)7-N-15,,DA)
ERR-ANALYS (ERR-T) The average over-all rms error on the
           measured cross sections is estimated at about 6.2%.
           (ERR-S)counting statistics, average 3.0%.
           (ERR-1) geometry, 0.28%.
           (ERR-2) uncertainty in background, average 1.0%.
           (ERR-3,,1.3) maximum angular uncertainty, maximum 1.3%.
           (ERR-4) current integration, 0.7%.
           (ERR-5) gas pressure, average 0.5%.
           (ERR-6,,5.0) target gas impurities, maximum 5.0%.
           (ERR-7,,0.2) maximum error in scattering angle 0.2 deg.
STATUS     (CURVE) Figs. 3-6 of reference.
ENDBIB              12
COMMON               7          6
ANG-CM     ERR-T      ERR-S      ERR-1      ERR-2      ERR-4
ERR-5
ADEG       PER-CENT   PER-CENT   PER-CENT   PER-CENT   PER-CENT
PER-CENT
70.0       6.2        3.0        0.28       1.0        0.7
0.5
ENDCOMMON            6
DATA                 2        484
EN         DATA-CM
MEV        MB/SR
      2.403    685.587
      2.407    674.249
      2.414    677.022
      2.420    671.327
      2.424    676.951
      2.426    654.329
      2.434    675.143
      2.440    628.792
      2.445    641.743
      2.451    651.945
      2.458    651.897
      2.462    646.740
      2.468    641.567
      2.479    641.486
      2.485    631.188
      2.491    641.390
      2.495    628.495
      2.497    637.854
      2.501    635.479
      2.505    640.141
      2.510    630.723
      2.513    616.628
      2.518    628.319
      2.523    614.210
      2.526    635.289
      2.529    625.885
      2.533    602.402
      2.537    614.099
      2.542    625.790
      2.544    604.667
      2.549    616.357
      2.552    616.327
      2.555    604.579
      2.560    602.196
      2.564    588.095
      2.570    595.087
      2.574    585.676
      2.577    587.992
      2.580    592.661
      2.585    592.624
      2.589    601.976
      2.592    587.882
      2.598    587.838
      2.600    576.096
      2.605    576.052
      2.607    561.965
      2.614    564.259
      2.615    597.087
      2.617    613.490
      2.623    608.756
      2.627    599.345
      2.629    587.596
      2.632    559.429
      2.636    521.874
      2.640    521.844
      2.644    521.815
      2.647    549.938
      2.653    549.894
      2.657    556.893
      2.661    568.591
      2.664    559.187
      2.669    552.114
      2.673    549.739
      2.678    552.048
      2.681    549.673
      2.685    551.989
      2.693    547.240
      2.705    542.461
      2.718    537.668
      2.731    528.191
      2.743    528.095
      2.754    525.669
      2.765    530.272
      2.778    525.486
      2.791    516.002
      2.799    518.288
      2.807    513.539
      2.813    487.688
      2.825    480.564
      2.828    485.233
      2.835    482.836
      2.839    508.599
      2.843    513.260
      2.847    510.885
      2.851    515.547
      2.856    506.128
      2.861    506.092
      2.865    501.364
      2.873    482.542
      2.878    442.634
      2.882    447.296
      2.884    482.462
      2.885    508.254
      2.888    536.376
      2.891    566.844
      2.894    526.943
      2.895    552.735
      2.898    538.641
      2.902    529.230
      2.905    522.172
      2.908    519.805
      2.913    515.077
      2.916    505.673
      2.919    500.953
      2.923    493.888
      2.928    491.506
      2.934    486.771
      2.938    456.252
      2.941    425.732
      2.946    411.623
      2.947    467.905
      2.947    491.359
      2.950    545.281
      2.951    594.527
      2.956    603.872
      2.958    589.785
      2.961    575.690
      2.965    566.279
      2.969    552.178
      2.974    542.752
      2.995    528.526
      3.004    521.416
      3.015    514.299
      3.025    516.564
      3.037    507.094
      3.048    511.704
      3.058    488.170
      3.079    502.081
      3.090    494.964
      3.100    471.437
      3.111    471.349
      3.122    468.923
      3.133    459.453
      3.141    442.977
      3.150    438.220
      3.158    421.736
      3.162    409.980
      3.168    416.972
      3.172    402.870
      3.176    395.805
      3.179    381.703
      3.183    386.364
      3.188    372.255
      3.195    337.023
      3.196    355.779
      3.202    358.080
      3.202    376.843
      3.208    362.720
      3.214    343.913
      3.220    334.487
      3.221    306.335
      3.229    301.578
      3.231    313.291
      3.232    346.119
      3.239    324.959
      3.246    308.490
      3.253    313.129
      3.258    294.322
      3.262    310.710
      3.266    291.918
      3.272    291.874
      3.279    294.168
      3.289    272.979
      3.299    275.251
      3.309    277.515
      3.317    268.075
      3.326    265.664
      3.334    260.907
      3.344    258.488
      3.352    256.084
      3.361    258.356
      3.371    255.937
      3.375    258.253
      3.379    255.879
      3.387    258.158
      3.392    255.776
      3.398    251.041
      3.403    255.695
      3.410    250.946
      3.421    250.865
      3.430    255.490
      3.437    248.395
      3.448    253.005
      3.455    257.644
      3.461    250.564
      3.470    259.872
      3.475    252.800
      3.481    255.101
      3.492    250.322
      3.498    254.969
      3.502    266.666
      3.506    252.565
      3.512    254.866
      3.516    257.182
      3.520    254.800
      3.525    233.655
      3.529    226.589
      3.533    235.942
      3.538    242.941
      3.542    254.639
      3.546    254.602
      3.553    263.932
      3.556    252.183
      3.562    252.139
      3.567    252.102
      3.570    242.692
      3.576    249.684
      3.580    242.618
      3.584    228.517
      3.589    228.480
      3.594    256.588
      3.597    287.048
      3.600    279.990
      3.605    275.263
      3.609    268.197
      3.613    261.132
      3.618    254.059
      3.622    249.332
      3.627    246.949
      3.632    232.840
      3.635    218.746
      3.642    228.076
      3.646    199.902
      3.650    190.484
      3.655    174.030
      3.660    190.411
      3.666    197.403
      3.672    216.122
      3.676    225.467
      3.682    241.840
      3.685    253.545
      3.691    260.538
      3.696    267.537
      3.701    276.882
      3.704    283.889
      3.709    281.507
      3.716    283.801
      3.725    283.735
      3.731    293.065
      3.739    290.661
      3.743    307.049
      3.746    299.991
      3.751    295.263
      3.756    299.910
      3.766    297.491
      3.770    311.534
      3.776    295.073
      3.790    285.581
      3.810    264.685
      3.831    232.030
      3.840    217.285
      3.849    197.284
      3.859    181.488
      3.869    165.688
      3.877    148.843
      3.882    150.929
      3.888    145.653
      3.898    125.649
      3.906    118.268
      3.917    117.179
      3.927    118.197
      3.927    118.197
      3.935    126.578
      3.946    182.251
      3.950    199.055
      3.956    219.005
      3.959    211.637
      3.963    217.930
      3.971    209.498
      3.974    213.692
      3.981    210.515
      3.989    193.671
      3.999    200.994
      4.003    187.317
      4.010    198.858
      4.020    183.058
      4.029    189.334
      4.039    174.585
      4.048    176.660
      4.053    166.133
      4.058    175.576
      4.069    167.130
      4.078    160.793
      4.088    151.303
      4.097    149.170
      4.103    141.792
      4.109    147.027
      4.113    145.963
      4.118    150.150
      4.122    134.371
      4.127    131.200
      4.133    122.775
      4.136    142.735
      4.143    147.967
      4.147    130.085
      4.153    122.707
      4.167    116.353
      4.177    105.812
      4.188    104.724
      4.201     98.374
      4.205    109.922
      4.219    122.491
      4.226    141.386
      4.236    159.221
      4.251    169.684
      4.265    193.811
      4.277    211.642
      4.287    214.761
      4.295    224.194
      4.302    218.915
      4.308    216.792
      4.311    213.632
      4.316    213.616
      4.323    208.336
      4.330    203.057
      4.338    194.622
      4.346    192.493
      4.354    191.418
      4.357    180.897
      4.368    176.655
      4.377    164.012
      4.388    158.720
      4.398    146.076
      4.409    137.630
      4.418    139.702
      4.429    126.001
      4.439    117.562
      4.452    110.160
      4.459    118.545
      4.467    114.314
      4.470    126.917
      4.481    137.393
      4.487    147.884
      4.491    167.841
      4.495    181.491
      4.500    195.138
      4.506    217.194
      4.510    222.435
      4.516    231.875
      4.520    236.065
      4.527    239.195
      4.531    233.926
      4.538    228.650
      4.543    226.531
      4.549    229.664
      4.553    230.702
      4.559    230.681
      4.564    226.460
      4.569    239.056
      4.574    245.349
      4.578    254.795
      4.582    276.854
      4.589    283.137
      4.593    294.685
      4.598    287.311
      4.603    288.345
      4.608    287.280
      4.609    294.634
      4.614    283.056
      4.620    291.444
      4.625    284.069
      4.630    280.899
      4.635    282.985
      4.640    281.917
      4.647    279.794
      4.652    285.032
      4.656    276.610
      4.662    277.641
      4.666    272.372
      4.672    270.250
      4.678    270.229
      4.682    258.654
      4.687    244.973
      4.694    226.034
      4.698    213.407
      4.703    209.186
      4.708    220.731
      4.709    227.034
      4.714    233.324
      4.715    225.963
      4.717    215.445
      4.724    200.707
      4.728    208.050
      4.730    192.278
      4.732    180.709
      4.736    175.444
      4.742    164.913
      4.747    157.538
      4.752    151.215
      4.758    150.143
      4.761    137.520
      4.767    136.449
      4.773    128.020
      4.779    140.616
      4.784    155.314
      4.789    158.450
      4.794    155.280
      4.795    154.908
      4.800    149.475
      4.804    149.466
      4.810    147.045
      4.815    144.022
      4.820    144.615
      4.826    144.001
      4.832    148.207
      4.843    146.981
      4.854    137.318
      4.859    148.154
      4.865    138.501
      4.875    137.880
      4.885    134.243
      4.896    134.222
      4.907    127.573
      4.918    131.166
      4.928    129.339
      4.939    123.894
      4.950    123.873
      4.962    128.069
      4.972    120.818
      4.983    123.206
      4.995    118.966
      5.004    114.730
      5.015    114.105
      5.026    111.070
      5.037    107.434
      5.045    111.636
      5.056    107.397
      5.068    107.374
      5.077    116.393
      5.081    112.771
      5.092    120.583
      5.103    117.549
      5.114    146.451
      5.124    160.290
      5.136    169.908
      5.147    187.361
      5.157    172.880
      5.168    172.255
      5.180    154.757
      5.195    143.883
      5.202    130.612
      5.208    126.985
      5.214    117.935
      5.219    114.309
      5.224     96.221
      5.230     84.159
      5.235     83.546
      5.242     83.533
      5.247     73.279
      5.253     84.114
      5.257     99.772
      5.263    113.017
      5.269    133.494
      5.276    137.699
      5.280    149.138
      5.286    181.063
      5.292    188.282
      5.297    159.951
      5.303    151.504
      5.309    145.467
      5.314    144.854
      5.318    137.615
      5.324    137.002
      5.329    138.799
      5.336    142.402
      5.342    135.158
      5.348    130.928
      5.352    122.485
      5.357    127.295
      5.364    126.077
      5.370    123.655
      5.375    129.672
      5.379    123.034
      5.385    122.420
      5.391    121.203
      5.397    125.409
      5.409    120.566
      5.420    116.327
      5.426    123.546
      5.436    122.321
      5.448    117.477
      5.459    116.852
      5.469    112.614
      5.481    115.604
ENDDATA            486
ENDSUBENT          510
SUBENT        C0755004   20130710   20140110   20131212       C133
BIB                  3         12
REACTION   (7-N-15(A,EL)7-N-15,,DA)
ERR-ANALYS (ERR-T) The average over-all rms error on the
           measured cross sections is estimated at about 6.2%.
           (ERR-S)counting statistics, average 3.0%.
           (ERR-1) geometry, 0.28%.
           (ERR-2) uncertainty in background, average 1.0%.
           (ERR-3,,1.3) maximum angular uncertainty, maximum 1.3%.
           (ERR-4) current integration, 0.7%.
           (ERR-5) gas pressure, average 0.5%.
           (ERR-6,,5.0) target gas impurities, maximum 5.0%.
           (ERR-7,,0.2) maximum error in scattering angle 0.2 deg.
STATUS     (CURVE) Figs. 3-6 of reference.
ENDBIB              12
COMMON               7          6
ANG-CM     ERR-T      ERR-S      ERR-1      ERR-2      ERR-4
ERR-5
ADEG       PER-CENT   PER-CENT   PER-CENT   PER-CENT   PER-CENT
PER-CENT
90.0       6.2        3.0        0.28       1.0        0.7
0.5
ENDCOMMON            6
DATA                 2        622
EN         DATA-CM
MEV        MB/SR
      1.717    581.294
      1.723    581.329
      1.731    576.981
      1.738    572.877
      1.744    568.774
      1.751    568.814
      1.756    559.532
      1.767    551.319
      1.771    533.753
      1.781    543.118
      1.785    527.621
      1.793    529.737
      1.796    521.478
      1.807    520.507
      1.820    511.271
      1.832    513.404
      1.835    501.006
      1.845    498.995
      1.852    492.828
      1.859    500.112
      1.865    490.835
      1.874    497.089
      1.880    506.436
      1.881    489.349
      1.886    492.690
      1.888    481.103
      1.891    467.039
      1.895    466.234
      1.899    477.855
      1.905    465.462
      1.913    468.822
      1.916    462.214
      1.917    456.420
      1.922    456.448
      1.924    453.148
      1.929    444.064
      1.933    460.655
      1.939    438.322
      1.953    439.229
      1.965    426.874
      1.980    423.645
      1.992    426.200
      2.007    427.940
      2.019    418.070
      2.033    401.582
      2.047    395.034
      2.061    384.345
      2.074    380.278
      2.087    379.524
      2.101    366.350
      2.120    378.054
      2.133    359.905
      2.148    359.160
      2.161    353.436
      2.175    363.460
      2.189    349.458
      2.203    342.082
      2.218    339.681
      2.231    334.785
      2.246    329.899
      2.261    315.901
      2.274    315.980
      2.290    319.382
      2.303    308.688
      2.319    299.665
      2.333    298.920
      2.346    299.823
      2.360    294.104
      2.376    295.025
      2.412    283.634
      2.420    262.967
      2.428    268.812
      2.434    278.785
      2.442    278.003
      2.450    287.162
      2.458    270.641
      2.465    260.738
      2.473    254.158
      2.482    247.971
      2.490    251.121
      2.498    255.053
      2.501    260.508
      2.505    262.083
      2.510    263.663
      2.513    254.359
      2.518    258.269
      2.521    252.077
      2.525    237.341
      2.528    245.126
      2.536    245.946
      2.544    241.334
      2.549    239.030
      2.554    256.145
      2.560    231.324
      2.565    238.345
      2.572    245.375
      2.579    236.094
      2.586    233.803
      2.593    232.293
      2.594    230.482
      2.599    235.939
      2.602    228.616
      2.606    219.466
      2.609    222.188
      2.612    217.609
      2.617    205.716
      2.620    192.914
      2.625    172.802
      2.629    166.387
      2.636    218.408
      2.638    242.142
      2.645    248.499
      2.649    259.440
      2.651    242.989
      2.656    248.446
      2.659    242.041
      2.665    240.184
      2.672    238.322
      2.681    243.762
      2.688    237.334
      2.696    225.423
      2.703    225.388
      2.712    234.480
      2.714    224.422
      2.722    232.606
      2.729    231.657
      2.737    216.094
      2.745    227.012
      2.753    212.366
      2.760    215.984
      2.769    216.853
      2.774    217.744
      2.778    217.722
      2.781    215.882
      2.785    213.121
      2.790    213.099
      2.795    218.556
      2.796    210.329
      2.802    203.910
      2.803    197.513
      2.808    202.053
      2.812    209.341
      2.815    208.410
      2.820    209.301
      2.823    212.027
      2.828    212.001
      2.831    217.467
      2.834    226.586
      2.837    232.960
      2.840    221.989
      2.841    213.766
      2.842    211.022
      2.845    203.699
      2.847    199.124
      2.853    196.358
      2.856    199.993
      2.862    191.748
      2.869    199.932
      2.873    194.435
      2.880    193.487
      2.882    205.349
      2.886    217.203
      2.891    208.958
      2.891    218.090
      2.894    202.553
      2.895    194.330
      2.900    184.258
      2.905    187.889
      2.911    186.945
      2.915    182.361
      2.924    177.751
      2.928    184.122
      2.934    179.529
      2.937    192.301
      2.940    197.762
      2.942    207.799
      2.946    203.215
      2.948    191.331
      2.952    184.007
      2.952    194.966
      2.957    182.159
      2.958    177.584
      2.962    179.393
      2.963    170.257
      2.965    175.727
      2.968    172.974
      2.974    172.031
      2.974    176.596
      2.978    166.534
      2.982    162.859
      2.986    171.973
      2.990    169.212
      2.995    166.450
      3.001    165.506
      3.001    165.506
      3.006    172.790
      3.010    157.244
      3.013    170.015
      3.016    161.783
      3.019    155.373
      3.019    164.505
      3.024    155.351
      3.030    154.407
      3.036    160.773
      3.039    151.624
      3.041    156.181
      3.044    150.689
      3.049    148.836
      3.053    141.513
      3.057    141.495
      3.061    136.907
      3.066    136.885
      3.070    140.516
      3.078    128.610
      3.083    121.278
      3.088    121.256
      3.092    124.886
      3.100    117.541
      3.106    117.515
      3.110    117.497
      3.114    111.083
      3.120    116.536
      3.128     93.667
      3.131    100.041
      3.137     96.362
      3.139     91.783
      3.144     79.890
      3.148     87.178
      3.153     90.804
      3.157     85.307
      3.161     81.633
      3.167     79.780
      3.169     72.461
      3.175     71.522
      3.179     72.417
      3.182     69.660
      3.183     76.048
      3.190     73.278
      3.193     67.781
      3.200     64.093
      3.204     54.944
      3.210     56.744
      3.214     64.940
      3.217     54.882
      3.223     55.764
      3.227     58.486
      3.231     59.378
      3.239     55.690
      3.249     53.815
      3.251     58.368
      3.258     58.337
      3.262     62.885
      3.271     64.668
      3.280     58.231
      3.282     64.615
      3.288     64.584
      3.293     64.558
      3.298     73.667
      3.302     69.997
      3.306     67.236
      3.312     67.209
      3.318     71.744
      3.325     72.627
      3.333     76.240
      3.342     71.630
      3.350     80.722
      3.359     83.418
      3.368     79.721
      3.377     80.590
      3.387     83.286
      3.397     80.498
      3.406     83.194
      3.413     86.811
      3.423     92.242
      3.430     81.248
      3.440     85.766
      3.450     89.375
      3.458     80.203
      3.467     85.638
      3.478     81.020
      3.490     83.702
      3.495     89.155
      3.503     90.942
      3.508     82.701
      3.513     76.282
      3.517     66.220
      3.521     75.330
      3.526     96.311
      3.530     99.033
      3.536     85.304
      3.544     93.483
      3.552     90.708
      3.560     85.190
      3.567     87.894
      3.572     75.088
      3.576     86.024
      3.582     77.779
      3.590     86.871
      3.593     79.552
      3.595     74.060
      3.601     70.381
      3.605     63.054
      3.609     56.644
      3.616     54.782
      3.620     50.199
      3.625     45.606
      3.629     35.544
      3.634     38.257
      3.639     37.322
      3.644     57.390
      3.647     68.330
      3.653    100.265
      3.656    123.082
      3.660    141.323
      3.666    148.602
      3.674    151.302
      3.681    150.358
      3.683    138.474
      3.689    143.013
      3.691    131.129
      3.696    114.670
      3.704    121.022
      3.708    129.223
      3.711    137.424
      3.716    131.010
      3.721    135.554
      3.726    139.180
      3.730    117.242
      3.737    113.558
      3.742    121.751
      3.743    108.049
      3.750    108.931
      3.754    102.517
      3.759     96.102
      3.763     93.341
      3.770     96.050
      3.771     83.256
      3.777     81.404
      3.781     77.729
      3.787     80.442
      3.792     78.589
      3.795     70.357
      3.803     61.032
      3.809     55.751
      3.817     51.519
      3.821     48.348
      3.827     44.119
      3.832     36.736
      3.837     47.244
      3.841     33.550
      3.846     37.743
      3.852     38.780
      3.856     39.819
      3.861     39.803
      3.865     40.842
      3.869     41.882
      3.875     43.967
      3.879     47.111
      3.883     47.098
      3.888     47.085
      3.893     47.069
      3.897     52.318
      3.903     57.560
      3.907     53.338
      3.912     58.584
      3.916     69.095
      3.920     76.448
      3.928     76.426
      3.933     94.300
      3.937     90.078
      3.943     85.848
      3.946     73.210
      3.951     71.089
      3.955     64.762
      3.961     61.588
      3.966     57.362
      3.970     52.088
      3.976     52.068
      3.980     53.107
      3.984     55.199
      3.990     56.232
      3.996     54.108
      4.001     49.885
      4.004     44.614
      4.009     45.650
      4.014     50.896
      4.020     57.190
      4.023     54.024
      4.029     51.899
      4.035     58.197
      4.038     49.769
      4.044     55.011
      4.049     52.890
      4.054     56.031
      4.059     49.700
      4.063     57.054
      4.067     49.674
      4.074     47.550
      4.078     52.799
      4.082     52.786
      4.088     48.557
      4.093     54.855
      4.098     49.577
      4.101     54.829
      4.106     53.761
      4.114     49.528
      4.116     58.994
      4.120     56.876
      4.126     57.909
      4.131     59.997
      4.136     56.824
      4.141     59.965
      4.147     58.896
      4.152     53.618
      4.156     71.496
      4.164     65.155
      4.171     72.499
      4.177     70.375
      4.182     70.362
      4.187     75.608
      4.191     78.752
      4.197     81.890
      4.201     85.034
      4.206     93.437
      4.211     92.368
      4.222     94.441
      4.232     82.832
      4.243     88.058
      4.252     90.134
      4.262    101.681
      4.272    113.225
      4.282    118.454
      4.292     93.168
      4.302     86.821
      4.313     78.366
      4.321     76.235
      4.331     74.101
      4.343     69.853
      4.352     69.824
      4.361     69.794
      4.372     63.448
      4.383     58.150
      4.392     57.068
      4.403     62.295
      4.413     64.370
      4.422     59.079
      4.432     64.308
      4.445     64.270
      4.454     70.555
      4.464     72.627
      4.470     70.503
      4.475     71.539
      4.480     64.159
      4.484     66.251
      4.489     55.711
      4.495     59.901
      4.499     47.259
      4.504     46.191
      4.509     44.070
      4.515     38.788
      4.522     29.297
      4.526     25.075
      4.537     22.934
      4.547     20.797
      4.556     19.715
      4.563     29.167
      4.567     38.626
      4.574     42.813
      4.577     51.222
      4.583     49.098
      4.587     53.295
      4.594     51.170
      4.598     49.053
      4.605     44.820
      4.609     36.388
      4.619     39.513
      4.630     40.533
      4.639     32.084
      4.646     33.114
      4.652     27.833
      4.656     32.029
      4.661     28.856
      4.668     25.679
      4.672     20.404
      4.678     15.123
      4.682     15.110
      4.687      7.727
      4.692      5.606
      4.698      5.586
      4.704      7.672
      4.709     13.973
      4.715      8.692
      4.720      6.571
      4.725      4.450
      4.731      4.430
      4.735      3.365
      4.740      6.506
      4.747      3.329
      4.753      5.414
      4.758      5.398
      4.762      8.542
      4.769      9.572
      4.771     11.670
      4.776     20.073
      4.782     30.581
      4.787     13.727
      4.792     12.658
      4.798      9.481
      4.804     10.514
      4.808     10.763
      4.813     16.290
      4.819     13.526
      4.824     13.526
      4.829     13.526
      4.835     12.421
      4.840     13.526
      4.847     12.421
      4.851     12.974
      4.856     11.315
      4.862     12.974
      4.866     11.315
      4.873     13.526
      4.878     11.315
      4.883     11.315
      4.888     11.868
      4.895     13.526
      4.900     13.526
      4.906     12.421
      4.911     12.974
      4.916     14.632
      4.922     11.868
      4.926     13.526
      4.933     11.868
      4.936     12.974
      4.943     15.185
      4.949     13.526
      4.954     12.974
      4.960     13.526
      4.964     14.632
      4.971     13.526
      4.975     14.632
      4.981     15.185
      4.987     17.396
      4.992     15.737
      4.998     19.054
      5.003     18.501
      5.008     19.054
      5.013     22.371
      5.019     26.793
      5.025     26.793
      5.029     21.818
      5.035     29.004
      5.041     27.898
      5.045     31.767
      5.051     30.662
      5.057     32.320
      5.062     36.189
      5.068     43.375
      5.073     36.189
      5.079     40.059
      5.084     45.586
      5.090     42.270
      5.094     43.928
      5.102     52.219
      5.106     60.511
      5.112     60.511
      5.117     63.827
      5.123     61.616
      5.127     57.194
      5.132     59.958
      5.137     56.089
      5.144     52.219
      5.150     50.561
      5.156     43.928
      5.161     39.506
      5.166     30.109
      5.171     27.345
      5.178     22.371
      5.184     18.501
      5.189     16.843
      5.194     11.868
      5.198     12.421
      5.205      9.657
      5.210     13.526
      5.216      6.341
      5.221      8.552
      5.226     12.974
      5.232     13.526
      5.238     14.632
      5.243     22.371
      5.248     24.029
      5.254     36.189
      5.255     43.928
      5.259     47.245
      5.266     47.797
      5.272     45.034
      5.277     37.848
      5.282     32.320
      5.288     26.793
      5.293     35.637
      5.300     30.109
      5.306     30.662
      5.311     26.240
      5.315     27.345
      5.320     22.371
      5.326     26.793
      5.331     24.029
      5.337     26.793
      5.342     24.582
      5.348     21.818
      5.354     26.793
      5.357     24.582
      5.364     26.793
      5.371     24.582
      5.376     19.607
      5.381     23.476
      5.385     25.134
      5.393     25.687
      5.399     27.345
      5.404     27.898
      5.410     28.451
      5.416     28.451
ENDDATA            624
ENDSUBENT          648
SUBENT        C0755005   20130710   20140110   20131212       C133
BIB                  3         12
REACTION   (7-N-15(A,EL)7-N-15,,DA)
ERR-ANALYS (ERR-T) The average over-all rms error on the
           measured cross sections is estimated at about 6.2%.
           (ERR-S)counting statistics, average 3.0%.
           (ERR-1) geometry, 0.28%.
           (ERR-2) uncertainty in background, average 1.0%.
           (ERR-3,,1.3) maximum angular uncertainty, maximum 1.3%.
           (ERR-4) current integration, 0.7%.
           (ERR-5) gas pressure, average 0.5%.
           (ERR-6,,5.0) target gas impurities, maximum 5.0%.
           (ERR-7,,0.2) maximum error in scattering angle 0.2 deg.
STATUS     (CURVE) Figs. 3-6 of reference.
ENDBIB              12
COMMON               7          6
ANG-CM     ERR-T      ERR-S      ERR-1      ERR-2      ERR-4
ERR-5
ADEG       PER-CENT   PER-CENT   PER-CENT   PER-CENT   PER-CENT
PER-CENT
125.3      6.2        3.0        0.28       1.0        0.7
0.5
ENDCOMMON            6
DATA                 2        652
EN         DATA-CM
MEV        MB/SR
      1.721    157.216
      1.733    150.000
      1.746    153.093
      1.753    150.515
      1.760    149.485
      1.771    141.753
      1.785    142.268
      1.797    141.753
      1.810    138.144
      1.817    136.598
      1.822    134.021
      1.836    130.412
      1.850    126.289
      1.854    127.835
      1.859    127.835
      1.862    118.557
      1.867    118.041
      1.871    100.000
      1.875     89.691
      1.876     78.351
      1.881     85.567
      1.882    107.216
      1.888    111.856
      1.894    123.196
      1.904    126.804
      1.907    122.680
      1.911    124.227
      1.913    129.381
      1.914    124.742
      1.926    124.227
      1.940    124.227
      1.953    114.948
      1.966    114.433
      1.979    111.340
      2.012    111.340
      2.047    101.031
      2.081     97.938
      2.120     93.299
      2.155     94.330
      2.225     80.412
      2.261     84.536
      2.295     78.866
      2.333     76.804
      2.367     73.711
      2.377     79.381
      2.390     67.010
      2.396     67.010
      2.401     71.134
      2.405     73.196
      2.409     62.371
      2.412     69.072
      2.416     71.649
      2.421     69.072
      2.422     62.371
      2.429     65.464
      2.430     70.619
      2.435     69.588
      2.439     69.072
      2.443     68.041
      2.447     68.041
      2.450     63.402
      2.454     69.072
      2.460     63.918
      2.464     69.072
      2.472     69.588
      2.478     67.010
      2.480     63.918
      2.486     68.041
      2.494     63.918
      2.504     63.918
      2.510     62.371
      2.518     61.856
      2.528     60.825
      2.537     60.309
      2.548     58.763
      2.558     59.794
      2.566     58.247
      2.577     56.701
      2.587     56.186
      2.595     55.155
      2.599     92.186
      2.603     87.884
      2.607     90.438
      2.612     74.131
      2.615     85.265
      2.620     89.531
      2.621     98.096
      2.627     99.791
      2.630    127.208
      2.635    124.616
      2.641    110.020
      2.649    103.129
      2.650     90.268
      2.654     87.683
      2.658     82.523
      2.663     92.789
      2.666     77.346
      2.670     83.330
      2.675     90.171
      2.679     80.725
      2.682     80.711
      2.688     88.403
      2.693     88.382
      2.698     86.648
      2.703     89.199
      2.707     83.186
      2.712     80.594
      2.716     76.291
      2.724     74.543
      2.725     82.255
      2.729     68.523
      2.730     77.949
      2.733     80.510
      2.737     76.207
      2.742     74.473
      2.747     79.596
      2.750     72.728
      2.754     74.426
      2.759     75.263
      2.763     70.103
      2.767     75.230
      2.771     70.930
      2.774     74.346
      2.778     77.758
      2.782     63.168
      2.788     70.006
      2.791     70.850
      2.794     75.122
      2.797     66.540
      2.803     67.374
      2.809     69.922
      2.810     64.772
      2.816     65.606
      2.820     61.307
      2.823     57.864
      2.828     56.987
      2.834     41.534
      2.836     52.668
      2.842     57.791
      2.845     64.635
      2.849     60.332
      2.853     62.887
      2.858     58.584
      2.862     61.996
      2.866     57.694
      2.870     62.820
      2.874     57.664
      2.879     48.211
      2.884     43.905
      2.888     47.320
      2.892     56.733
      2.897     56.713
      2.901     59.271
      2.903     56.689
      2.908     54.955
      2.912     58.370
      2.916     52.353
      2.921     53.190
      2.928     46.306
      2.930     53.153
      2.933     44.571
      2.938     43.690
      2.939     35.972
      2.944     35.098
      2.945     28.234
      2.949     38.507
      2.952     64.210
      2.956     52.192
      2.961     58.172
      2.968     52.145
      2.972     47.842
      2.976     45.254
      2.983     51.228
      2.986     41.788
      2.989     44.347
      2.994     42.612
      2.999     41.735
      3.004     42.572
      3.010     38.262
      3.019     35.654
      3.027     35.624
      3.037     39.012
      3.046     32.118
      3.052     34.666
      3.062     32.915
      3.071     27.735
      3.078     25.133
      3.088     26.811
      3.096     25.063
      3.105     24.172
      3.112     30.142
      3.122     27.531
      3.132     28.351
      3.140     25.746
      3.148     30.859
      3.158     31.676
      3.162     35.945
      3.165     43.650
      3.169     38.490
      3.175     35.038
      3.178     41.882
      3.184     41.001
      3.186     34.134
      3.193     35.821
      3.197     45.237
      3.200     56.367
      3.202     62.361
      3.203     55.500
      3.207     59.769
      3.208     52.048
      3.214     61.454
      3.217     58.015
      3.220     55.430
      3.223     51.134
      3.225     47.695
      3.228     52.828
      3.230     70.823
      3.232     63.955
      3.234     81.092
      3.241     80.208
      3.244     75.052
      3.247     87.900
      3.247     75.038
      3.252     73.304
      3.257     71.573
      3.259     76.706
      3.263     80.118
      3.265     77.540
      3.268     80.098
      3.274     79.220
      3.276     74.067
      3.276     84.354
      3.279     86.912
      3.284     78.320
      3.290     86.872
      3.294     78.283
      3.299     85.978
      3.302     93.679
      3.308     92.798
      3.313     87.635
      3.322     94.459
      3.326     87.585
      3.332     93.562
      3.333     98.698
      3.339     89.246
      3.344     93.515
      3.349     93.495
      3.353     94.335
      3.356     92.607
      3.361     91.730
      3.366     94.285
      3.370     92.554
      3.374     94.252
      3.375    101.106
      3.379     97.660
      3.384     96.783
      3.387     86.483
      3.393     93.321
      3.396     93.307
      3.403     90.709
      3.406     96.696
      3.411     90.675
      3.414     90.662
      3.419     89.788
      3.425     85.479
      3.428     90.608
      3.433     85.445
      3.439     80.278
      3.444     87.116
      3.448     89.671
      3.452     92.226
      3.456     81.069
      3.462     85.331
      3.465     92.175
      3.470     86.155
      3.473     82.713
      3.478     82.696
      3.484     82.672
      3.489     92.082
      3.491     78.356
      3.497     83.476
      3.502     86.885
      3.506     85.154
      3.512     82.559
      3.516     77.399
      3.522     80.807
      3.525     94.509
      3.530     97.918
      3.534     99.616
      3.536     91.037
      3.539     85.880
      3.542     76.441
      3.549     84.129
      3.553     78.112
      3.558     73.806
      3.562     82.361
      3.567     75.483
      3.570     70.327
      3.575     64.306
      3.580     69.433
      3.586     71.124
      3.591     60.814
      3.593     69.379
      3.598     73.645
      3.603     76.196
      3.609     85.602
      3.613     76.160
      3.617     75.286
      3.623     77.834
      3.625     87.253
      3.631     87.230
      3.637     90.635
      3.641     99.194
      3.646    101.742
      3.651    110.297
      3.653    105.144
      3.660     97.402
      3.665     88.810
      3.671     83.643
      3.677     79.334
      3.686     83.583
      3.689     62.140
      3.696     68.113
      3.699     68.103
      3.704     73.226
      3.708     62.066
      3.714     42.327
      3.719     37.163
      3.726     43.137
      3.730     42.263
      3.735     37.957
      3.738     32.800
      3.741     30.219
      3.746     31.913
      3.752     28.461
      3.755     22.447
      3.759     26.716
      3.764     20.696
      3.770     24.958
      3.771     18.954
      3.777     18.074
      3.782     20.625
      3.787     18.891
      3.795     18.000
      3.802     17.020
      3.808     16.657
      3.813     18.968
      3.818     22.063
      3.824     20.471
      3.828     22.011
      3.831     29.013
      3.835     25.094
      3.840     31.308
      3.842     27.397
      3.847     33.611
      3.852     33.003
      3.856     35.186
      3.862     34.424
      3.865     38.080
      3.870     40.263
      3.878     37.277
      3.884     36.512
      3.893     38.672
      3.904     32.000
      3.914     30.477
      3.923     27.492
      3.933     26.708
      3.943     61.200
      3.946     75.150
      3.952     73.650
      3.956     83.182
      3.962     87.562
      3.967     87.539
      3.972     86.043
      3.977     88.956
      3.981     80.849
      3.986     84.501
      3.991     77.125
      3.997     74.151
      4.001     80.012
      4.006     67.490
      4.010     71.143
      4.016     78.466
      4.021     78.436
      4.025     74.007
      4.032     70.298
      4.041     68.779
      4.051     66.525
      4.060     63.540
      4.070     62.017
      4.080     59.759
      4.090     58.240
      4.100     56.717
      4.105     51.545
      4.109     55.201
      4.114     54.440
      4.120     48.530
      4.124     52.182
      4.129     43.336
      4.134     39.634
      4.139     39.608
      4.145     39.577
      4.150     38.085
      4.155     39.528
      4.160     41.707
      4.163     38.748
      4.171     37.240
      4.174     29.875
      4.179     24.700
      4.185     26.140
      4.190     22.442
      4.193     18.748
      4.199     16.513
      4.203     18.699
      4.208     17.938
      4.214     17.172
      4.219     20.086
      4.226     19.317
      4.229     25.178
      4.235     30.293
      4.240     30.270
      4.246     36.851
      4.251     30.945
      4.255     29.456
      4.260     34.574
      4.265     39.697
      4.270     36.730
      4.274     34.503
      4.280     37.413
      4.284     39.599
      4.289     45.452
      4.295     41.012
      4.298     46.138
      4.304     43.903
      4.309     45.346
      4.314     51.939
      4.320     46.764
      4.325     46.737
      4.331     46.703
      4.336     48.151
      4.341     51.064
      4.346     47.363
      4.350     37.050
      4.355     45.112
      4.359     37.740
      4.363     39.922
      4.369     37.687
      4.374     45.749
      4.380     40.574
      4.386     38.335
      4.390     44.196
      4.396     39.017
      4.400     36.793
      4.404     30.890
      4.410     32.330
      4.415     25.693
      4.420     30.076
      4.426     28.572
      4.431     23.404
      4.437     24.109
      4.441     18.942
      4.447     15.971
      4.452     15.210
      4.456     19.597
      4.462     13.691
      4.467     18.809
      4.474     15.832
      4.483     23.136
      4.488     28.255
      4.493     26.758
      4.498     36.287
      4.502     41.413
      4.509     40.644
      4.512     53.124
      4.518     52.355
      4.523     46.449
      4.529     61.118
      4.535     61.823
      4.538     69.158
      4.545     63.244
      4.551     72.034
      4.555     77.156
      4.558     88.901
      4.564     93.281
      4.570     93.986
      4.576     97.627
      4.583     95.388
      4.589     88.004
      4.595     82.097
      4.599     80.605
      4.605     75.430
      4.610     72.463
      4.613     68.773
      4.617     68.015
      4.624     66.511
      4.629     63.545
      4.634     61.313
      4.639     67.902
      4.644     51.705
      4.649     53.149
      4.654     45.038
      4.660     42.071
      4.665     42.041
      4.669     36.877
      4.676     42.723
      4.681     39.022
      4.685     33.854
      4.691     33.824
      4.698     44.815
      4.702     58.757
      4.707     66.084
      4.710     73.419
      4.715     72.658
      4.718     77.784
      4.723     77.758
      4.726     83.626
      4.730     87.279
      4.736     96.069
      4.737     85.775
      4.739    100.463
      4.743     98.975
      4.747     97.482
      4.751     96.724
      4.753    102.597
      4.757    108.454
      4.764    106.215
      4.768    107.662
      4.774    109.837
      4.779    108.341
      4.780    103.927
      4.783     92.887
      4.788     95.800
      4.794     99.445
      4.800     95.907
      4.802     91.034
      4.809     89.956
      4.814     93.749
      4.819     94.294
      4.824     95.921
      4.829     90.509
      4.834     88.888
      4.840     95.931
      4.845     90.519
      4.852     93.772
      4.857    100.273
      4.863     99.194
      4.867     86.200
      4.872     84.037
      4.878     86.748
      4.883     90.000
      4.887     86.754
      4.893     86.216
      4.899     88.927
      4.904     74.608
      4.909     83.258
      4.915     83.262
      4.920     74.110
      4.925     89.372
      4.931     82.254
      4.937     86.327
      4.941     80.226
      4.947     85.316
      4.951     88.370
      4.957     81.253
      4.963     86.342
      4.969     75.665
      4.973     79.228
      4.982     82.285
      4.987     80.253
      4.992     73.644
      4.997     73.139
      5.003     71.616
      5.007     90.438
      5.013     77.726
      5.018     83.833
      5.026     84.346
      5.035     80.791
      5.040     85.880
      5.049     84.869
      5.057     85.891
      5.065     84.878
      5.071     85.390
      5.077     82.342
      5.084     82.346
      5.089     82.350
      5.095     80.318
      5.101     81.848
      5.104     75.238
      5.111     74.733
      5.116     73.719
      5.121     77.791
      5.127     73.725
      5.132     67.625
      5.138     71.698
      5.144     64.071
      5.149     64.583
      5.155     61.027
      5.160     52.383
      5.166     50.860
      5.171     52.389
      5.177     47.306
      5.182     47.309
      5.188     43.244
      5.194     46.808
      5.201     43.760
      5.208     39.187
      5.216     43.770
      5.221     42.755
      5.228     43.268
      5.233     33.098
      5.238     26.489
      5.244     24.458
      5.251     23.953
      5.256     25.482
      5.260     31.589
      5.265     37.187
      5.272     43.294
      5.278     50.419
      5.283     59.069
      5.288     65.176
      5.294     58.058
      5.301     51.958
      5.306     53.996
      5.310     57.051
      5.316     58.071
      5.321     58.074
      5.327     54.518
      5.331     61.641
      5.337     55.032
      5.344     59.106
      5.350     65.213
      5.356     60.130
      5.360     64.202
      5.365     59.118
      5.372     62.174
      5.377     59.634
      5.383     64.215
      5.388     61.167
      5.393     60.153
      5.399     65.243
      5.406     58.634
      5.412     62.198
      5.416     65.253
      5.423     63.731
      5.428     61.699
      5.434     60.686
      5.440     58.146
      5.445     60.692
      5.451     59.170
      5.457     61.208
      5.462     60.702
      5.468     63.249
ENDDATA            654
ENDSUBENT          678
SUBENT        C0755006   20130710   20140110   20131212       C133
BIB                  3         12
REACTION   (7-N-15(A,EL)7-N-15,,DA)
ERR-ANALYS (ERR-T) The average over-all rms error on the
           measured cross sections is estimated at about 6.2%.
           (ERR-S)counting statistics, average 3.0%.
           (ERR-1) geometry, 0.28%.
           (ERR-2) uncertainty in background, average 1.0%.
           (ERR-3,,1.3) maximum angular uncertainty, maximum 1.3%.
           (ERR-4) current integration, 0.7%.
           (ERR-5) gas pressure, average 0.5%.
           (ERR-6,,5.0) target gas impurities, maximum 5.0%.
           (ERR-7,,0.2) maximum error in scattering angle 0.2 deg.
STATUS     (CURVE) Figs. 3-6 of reference.
ENDBIB              12
COMMON               7          6
ANG-CM     ERR-T      ERR-S      ERR-1      ERR-2      ERR-4
ERR-5
ADEG       PER-CENT   PER-CENT   PER-CENT   PER-CENT   PER-CENT
PER-CENT
140.8      6.2        3.0        0.28       1.0        0.7
0.5
ENDCOMMON            6
DATA                 2        710
EN         DATA-CM
MEV        MB/SR
      1.707    199.172
      1.714    197.647
      1.721    199.601
      1.727    194.981
      1.734    195.003
      1.741    188.452
      1.746    186.536
      1.753    188.490
      1.760    185.419
      1.765    183.500
      1.775    179.665
      1.781    183.552
      1.785    180.856
      1.791    177.782
      1.798    174.711
      1.802    172.406
      1.812    166.635
      1.816    164.330
      1.824    165.900
      1.829    158.185
      1.835    156.271
      1.842    153.200
      1.848    156.698
      1.855    150.148
      1.862    135.090
      1.870    110.759
      1.876     87.584
      1.880     82.570
      1.883    125.490
      1.888    180.789
      1.892    198.197
      1.896    192.799
      1.900    183.531
      1.902    177.353
      1.909    171.962
      1.915    168.888
      1.927    165.445
      1.934    158.121
      1.942    160.467
      1.955    155.868
      1.967    153.587
      1.982    156.724
      1.994    149.031
      2.007    144.816
      2.022    138.292
      2.037    139.497
      2.050    140.310
      2.070    131.867
      2.090    131.544
      2.116    124.278
      2.137    126.277
      2.157    121.313
      2.179    120.609
      2.201    119.902
      2.221    114.552
      2.242    106.111
      2.263    108.497
      2.285    101.221
      2.308    109.021
      2.330     97.879
      2.351    101.038
      2.359     96.809
      2.401     90.752
      2.409     89.618
      2.418     84.232
      2.428     87.356
      2.440     86.621
      2.449     87.036
      2.454     86.663
      2.460     89.775
      2.462     82.437
      2.467     82.840
      2.473     84.017
      2.480     83.267
      2.487     84.062
      2.493     84.854
      2.503     83.336
      2.514     78.733
      2.521     80.687
      2.537     77.255
      2.546     77.670
      2.556     76.544
      2.563     76.562
      2.574     75.438
      2.583     75.080
      2.588     80.507
      2.592     72.787
      2.594     75.288
      2.599     75.275
      2.601     81.260
      2.605     81.248
      2.610     86.052
      2.619     85.068
      2.621     88.914
      2.627     91.789
      2.630     95.635
      2.635     98.510
      2.638     80.204
      2.640     60.937
      2.643     68.635
      2.646     58.996
      2.653     59.941
      2.658     63.782
      2.662     58.955
      2.665     70.505
      2.669     66.644
      2.673     61.819
      2.677     60.846
      2.682     61.796
      2.685     63.715
      2.686     68.528
      2.690     63.703
      2.694     66.581
      2.697     59.832
      2.702     62.710
      2.707     59.809
      2.709     62.692
      2.714     64.606
      2.718     63.634
      2.722     66.514
      2.725     64.578
      2.730     62.641
      2.736     62.627
      2.737     56.843
      2.742     58.758
      2.747     52.004
      2.749     62.594
      2.753     57.767
      2.758     57.755
      2.761     52.933
      2.766     61.587
      2.769     55.801
      2.773     55.792
      2.778     56.744
      2.783     50.951
      2.788     56.718
      2.791     46.117
      2.795     51.884
      2.800     48.983
      2.803     45.124
      2.809     47.999
      2.817     45.089
      2.820     37.377
      2.824     29.660
      2.830     23.868
      2.832     35.421
      2.836     46.969
      2.839     53.702
      2.844     51.764
      2.849     53.678
      2.852     51.745
      2.857     60.399
      2.862     54.609
      2.866     45.932
      2.869     53.627
      2.877     56.498
      2.879     87.314
      2.885     71.888
      2.886     66.106
      2.887     57.436
      2.894     48.752
      2.898     46.814
      2.903     45.839
      2.909     50.641
      2.913     49.666
      2.916     43.880
      2.920     41.945
      2.921     49.648
      2.929     42.885
      2.935     49.613
      2.937     46.719
      2.939     63.087
      2.942     73.675
      2.942     90.048
      2.943     96.785
      2.947     88.108
      2.952     48.608
      2.957     54.375
      2.958     44.739
      2.963     39.912
      2.966     47.610
      2.971     34.113
      2.975     42.771
      2.980     34.092
      2.985     33.115
      2.991     33.101
      2.993     40.801
      2.999     36.935
      3.002     32.110
      3.008     32.096
      3.012     33.050
      3.016     34.965
      3.022     33.024
      3.027     30.123
      3.031     25.296
      3.036     32.026
      3.042     26.234
      3.045     26.225
      3.049     21.400
      3.053     33.911
      3.057     28.123
      3.062     27.146
      3.067     26.171
      3.070     31.943
      3.073     27.118
      3.079     28.067
      3.084     29.019
      3.088     29.971
      3.096     25.136
      3.099     32.835
      3.103     30.897
      3.108     35.701
      3.113     31.837
      3.118     32.788
      3.122     41.445
      3.125     34.696
      3.130     40.463
      3.135     36.597
      3.139     45.256
      3.143     37.541
      3.147     42.345
      3.151     40.410
      3.156     43.288
      3.161     44.239
      3.165     46.154
      3.168     52.889
      3.173     46.135
      3.177     52.866
      3.181     46.115
      3.185     49.958
      3.190     46.094
      3.193     72.091
      3.193     83.647
      3.196     94.234
      3.200     90.372
      3.206     82.653
      3.209     86.497
      3.212     79.748
      3.217     78.773
      3.219     88.400
      3.223    102.837
      3.226    111.496
      3.229     98.006
      3.238     97.985
      3.240     93.162
      3.244     93.153
      3.248     94.107
      3.253    101.798
      3.257     89.268
      3.261     95.037
      3.267     89.242
      3.268    100.798
      3.272     95.010
      3.274    102.710
      3.278    100.775
      3.282     99.800
      3.287    109.420
      3.291    105.558
      3.295    105.548
      3.299    103.611
      3.305     93.002
      3.311    102.620
      3.313     96.834
      3.320    100.670
      3.323    109.332
      3.328    110.281
      3.331    103.532
      3.336    105.447
      3.341    109.285
      3.345    103.497
      3.350    100.596
      3.353    111.184
      3.359    105.389
      3.363     96.711
      3.368    103.442
      3.368    109.220
      3.372     99.578
      3.376    102.458
      3.381    107.262
      3.387    104.356
      3.390     96.644
      3.394    102.414
      3.399    104.328
      3.405    102.386
      3.408    106.231
      3.414     99.476
      3.417    108.135
      3.423    109.084
      3.426    105.224
      3.432    103.282
      3.434     96.535
      3.442     98.443
      3.445    102.286
      3.449     95.535
      3.454    101.302
      3.458     94.551
      3.462     93.577
      3.466     97.420
      3.473     96.440
      3.476     89.689
      3.481     93.530
      3.486     98.334
      3.489    103.141
      3.496    104.088
      3.499     90.597
      3.504     97.325
      3.509     94.424
      3.514    103.080
      3.517    100.184
      3.522     92.465
      3.527     96.306
      3.531     91.481
      3.532     85.700
      3.536     88.578
      3.539     82.792
      3.542     87.601
      3.547     89.513
      3.551     85.652
      3.558     90.451
      3.562     97.181
      3.568     97.167
      3.575     94.262
      3.579    102.918
      3.581     94.246
      3.585    107.720
      3.587    115.421
      3.590     93.262
      3.595     87.469
      3.597     95.169
      3.599     92.275
      3.605     96.114
      3.609     85.508
      3.614     89.349
      3.618     95.118
      3.626    102.803
      3.632     92.194
      3.638     98.920
      3.643     96.982
      3.647     81.563
      3.651     71.920
      3.654     51.687
      3.661     52.634
      3.665     43.954
      3.670     41.054
      3.675     46.821
      3.679     40.067
      3.683     41.984
      3.688     42.936
      3.692     44.850
      3.696     50.620
      3.702     49.643
      3.707     47.703
      3.712     40.949
      3.718     36.120
      3.721     31.295
      3.725     31.286
      3.730     29.348
      3.733     37.046
      3.736     26.442
      3.742     25.465
      3.743     33.168
      3.749     31.228
      3.754     25.435
      3.759     34.092
      3.764     28.301
      3.771     26.357
      3.778     28.267
      3.781     24.405
      3.787     29.207
      3.791     34.976
      3.797     33.997
      3.804     35.277
      3.807     45.558
      3.813     43.323
      3.818     44.039
      3.822     49.902
      3.827     53.559
      3.832     56.478
      3.836     62.341
      3.840     66.733
      3.846     67.442
      3.851     74.041
      3.855     70.345
      3.860     76.943
      3.865     82.803
      3.871     84.247
      3.877     84.954
      3.884     95.219
      3.889     87.108
      3.893    102.529
      3.898    101.036
      3.904    104.687
      3.908    112.024
      3.913    123.765
      3.918    130.364
      3.923    132.544
      3.926    148.707
      3.933    147.942
      3.937    161.893
      3.942    151.577
      3.948    136.114
      3.952    131.683
      3.958    121.363
      3.961    105.909
      3.967    108.821
      3.970     99.250
      3.976     98.489
      3.980     99.940
      3.986     95.502
      3.990     94.012
      3.996     92.519
      3.999     87.356
      4.004     92.481
      4.009     92.458
      4.015     88.024
      4.020     82.119
      4.024     86.511
      4.029     86.489
      4.034     89.407
      4.040     90.852
      4.043     80.545
      4.049     88.607
      4.053     81.235
      4.059     83.415
      4.064     81.187
      4.068     84.112
      4.074     84.086
      4.079     79.652
      4.085     78.891
      4.089     81.813
      4.093     78.117
      4.099     81.771
      4.104     83.954
      4.107     77.324
      4.114     75.821
      4.118     80.952
      4.123     83.867
      4.128     77.965
      4.134     74.263
      4.137     84.541
      4.142     87.459
      4.148     88.172
      4.154     84.467
      4.158     80.039
      4.162     91.784
      4.167     95.441
      4.172     93.213
      4.177     96.131
      4.181    100.523
      4.188     99.759
      4.193    104.884
      4.197    110.014
      4.203    115.136
      4.208    119.525
      4.212    124.652
      4.218    129.038
      4.223    128.280
      4.226    131.944
      4.233    129.709
      4.237    131.895
      4.243    123.782
      4.248    116.406
      4.252    106.828
      4.257    100.923
      4.262     88.401
      4.267     81.026
      4.273     77.324
      4.277     70.690
      4.282     82.432
      4.286     80.207
      4.292     79.449
      4.297     84.573
      4.302     97.050
      4.306     98.505
      4.311     99.949
      4.316     96.254
      4.322     96.960
      4.327    103.558
      4.333     97.650
      4.337     96.160
      4.343     99.076
      4.348    102.729
      4.353    101.236
      4.357     99.011
      4.363    100.459
      4.368    104.848
      4.371     96.009
      4.376    108.486
      4.381    103.319
      4.389    102.549
      4.392    113.565
      4.397    110.601
      4.403    110.576
      4.408    111.288
      4.412    113.475
      4.417    115.661
      4.422    120.050
      4.427    125.175
      4.433    117.061
      4.438    123.656
      4.443    128.780
      4.448    132.434
      4.453    126.532
      4.458    128.716
      4.463    130.899
      4.470    136.014
      4.475    142.612
      4.480    147.733
      4.486    138.887
      4.490    127.838
      4.495    127.816
      4.501    127.790
      4.506    121.150
      4.511    118.186
      4.516    104.929
      4.520     98.295
      4.526     94.593
      4.532     90.887
      4.538     89.391
      4.542     80.552
      4.548     79.052
      4.553     83.444
      4.558     78.272
      4.563     81.193
      4.568     84.112
      4.574     84.821
      4.580     83.325
      4.584     88.453
      4.588     81.084
      4.593     82.529
      4.599     77.356
      4.604     78.804
      4.610     76.575
      4.614     80.232
      4.620     70.648
      4.625     68.420
      4.630     68.397
      4.638     68.362
      4.641     60.996
      4.647     59.496
      4.652     60.947
      4.658     60.186
      4.662     51.344
      4.667     53.527
      4.673     46.884
      4.677     42.456
      4.682     40.224
      4.688     35.787
      4.694     35.026
      4.700     36.470
      4.705     41.595
      4.710     48.190
      4.715     49.638
      4.721     50.347
      4.726     55.472
      4.729     62.811
      4.736     61.312
      4.740     65.704
      4.747     71.557
      4.753     74.473
      4.756     82.548
      4.762     80.313
      4.767     79.555
      4.773     81.738
      4.778     80.245
      4.784     78.014
      4.789     80.197
      4.793     86.060
      4.800     84.560
      4.802     85.569
      4.807     89.595
      4.811     85.065
      4.818     89.595
      4.820     83.555
      4.824     86.072
      4.828     83.555
      4.834     82.045
      4.838     83.052
      4.844     83.555
      4.849     81.038
      4.855     79.025
      4.860     82.045
      4.866     88.085
      4.871     77.515
      4.877     77.012
      4.882     77.515
      4.886     79.528
      4.892     79.528
      4.898     79.528
      4.904     74.998
      4.908     69.965
      4.912     71.978
      4.918     73.992
      4.925     78.018
      4.931     81.542
      4.936     66.945
      4.940     72.985
      4.947     68.455
      4.951     70.972
      4.957     64.931
      4.962     69.462
      4.968     68.455
      4.974     67.448
      4.978     74.495
      4.985     70.468
      4.990     66.441
      4.995     71.978
      5.001     69.965
      5.006     64.931
      5.010     68.455
      5.018     66.945
      5.022     65.435
      5.028     70.468
      5.032     62.415
      5.039     61.408
      5.044     62.415
      5.049     59.395
      5.055     60.905
      5.060     58.891
      5.065     57.885
      5.070     55.871
      5.076     50.334
      5.081     59.395
      5.087     52.851
      5.093     56.375
      5.098     48.321
      5.103     49.328
      5.110     49.831
      5.112     62.415
      5.113     68.958
      5.119     70.972
      5.121     65.938
      5.124     64.931
      5.127     60.401
      5.132     46.811
      5.137     52.348
      5.142     51.341
      5.148     48.824
      5.154     50.334
      5.159     54.865
      5.165     57.381
      5.170     63.421
      5.174     57.885
      5.181     60.401
      5.187     63.925
      5.193     66.945
      5.198     64.428
      5.204     65.938
      5.208     62.415
      5.215     67.448
      5.223     62.415
      5.229     62.415
      5.231     72.985
      5.236     73.992
      5.237     68.958
      5.242     64.428
      5.249     66.441
      5.254     53.355
      5.261     52.851
      5.265     46.811
      5.272     39.764
      5.277     36.744
      5.282     37.247
      5.285     41.274
      5.287     51.341
      5.291     46.308
      5.296     37.751
      5.299     19.127
      5.306     21.644
      5.311     21.644
      5.316     24.664
      5.320     25.671
      5.325     28.691
      5.331     29.194
      5.336     27.684
      5.343     29.697
      5.349     30.201
      5.354     34.227
      5.360     34.227
      5.366     33.221
      5.371     32.214
      5.377     33.221
      5.383     34.731
      5.389     33.221
      5.393     38.758
      5.400     34.731
      5.405     32.717
      5.411     34.227
      5.417     37.247
      5.423     33.221
      5.429     33.221
      5.434     34.731
      5.440     37.247
      5.445     36.744
      5.451     37.751
      5.456     36.241
      5.462     37.247
      5.468     36.744
      5.472     38.254
      5.478     39.764
      5.482     44.798
      5.484     49.328
      5.490     49.328
      5.493     45.301
      5.496     40.268
      5.501     37.247
      5.506     35.737
      5.512     38.254
      5.518     40.268
      5.524     38.758
ENDDATA            712
ENDSUBENT          736
SUBENT        C0755007   20130710   20140110   20131212       C133
BIB                  3         12
REACTION   (7-N-15(A,EL)7-N-15,,DA)
ERR-ANALYS (ERR-T) The average over-all rms error on the
           measured cross sections is estimated at about 6.2%.
           (ERR-S)counting statistics, average 3.0%.
           (ERR-1) geometry, 0.28%.
           (ERR-2) uncertainty in background, average 1.0%.
           (ERR-3,,1.3) maximum angular uncertainty, maximum 1.3%.
           (ERR-4) current integration, 0.7%.
           (ERR-5) gas pressure, average 0.5%.
           (ERR-6,,5.0) target gas impurities, maximum 5.0%.
           (ERR-7,,0.2) maximum error in scattering angle 0.2 deg.
STATUS     (CURVE) Figs. 3-6 of reference.
ENDBIB              12
COMMON               7          6
ANG-CM     ERR-T      ERR-S      ERR-1      ERR-2      ERR-4
ERR-5
ADEG       PER-CENT   PER-CENT   PER-CENT   PER-CENT   PER-CENT
PER-CENT
149.5      6.2        3.0        0.28       1.0        0.7
0.5
ENDCOMMON            6
DATA                 2        532
EN         DATA-CM
MEV        MB/SR
      2.404     86.386
      2.409     82.582
      2.416     81.623
      2.424     81.612
      2.431     81.602
      2.439     79.693
      2.447     81.581
      2.454     83.471
      2.470     82.498
      2.481     82.484
      2.489     83.422
      2.498     79.613
      2.503     74.859
      2.507     81.499
      2.511     79.596
      2.515     70.096
      2.519     78.635
      2.524     78.628
      2.528     76.725
      2.532     79.566
      2.540     85.252
      2.544     71.955
      2.547     77.647
      2.553     75.741
      2.558     75.733
      2.563     83.322
      2.569     72.871
      2.571     78.565
      2.575     77.609
      2.580     77.603
      2.585     76.647
      2.590     81.386
      2.595     75.684
      2.599     79.476
      2.604     77.570
      2.606     88.010
      2.612     85.154
      2.612     92.749
      2.618    100.335
      2.619     93.689
      2.620     84.194
      2.626     87.034
      2.627     80.387
      2.630     89.877
      2.634     90.820
      2.636     84.172
      2.639     70.877
      2.641     63.280
      2.643     58.530
      2.647     52.828
      2.652     49.973
      2.655     52.818
      2.658     57.561
      2.662     57.555
      2.664     53.754
      2.671     63.239
      2.681     58.478
      2.691     61.314
      2.702     58.450
      2.712     57.487
      2.721     62.222
      2.731     59.360
      2.740     55.550
      2.751     61.232
      2.761     56.471
      2.771     54.559
      2.781     51.698
      2.792     50.733
      2.800     51.671
      2.808     47.864
      2.817     45.003
      2.822     38.351
      2.826     35.496
      2.828     26.950
      2.832     18.400
      2.835     28.839
      2.837     41.179
      2.841     58.262
      2.843     63.954
      2.849     65.846
      2.856     69.633
      2.857     62.037
      2.862     61.081
      2.866     59.177
      2.871     62.967
      2.875     71.506
      2.881     97.131
      2.881    114.220
      2.882    127.510
      2.888    108.514
      2.891     82.877
      2.892     59.142
      2.892     67.686
      2.899     52.487
      2.904     51.530
      2.906     47.730
      2.913     46.772
      2.918     49.612
      2.923     49.606
      2.927     51.500
      2.930     53.393
      2.936     60.031
      2.940     81.862
      2.940    103.697
      2.943    122.680
      2.947    141.663
      2.949    158.748
      2.951    129.315
      2.952    122.668
      2.953    107.477
      2.956     53.359
      2.956     68.549
      2.959     37.216
      2.959     44.811
      2.964     39.107
      2.969     33.404
      2.974     35.297
      2.982     38.134
      2.992     32.423
      3.000     36.211
      3.005     36.203
      3.010     35.247
      3.016     33.341
      3.019     31.438
      3.049     31.396
      3.062     32.329
      3.072     34.214
      3.081     33.252
      3.093     35.134
      3.101     33.225
      3.110     40.807
      3.113     37.956
      3.120     38.896
      3.125     47.433
      3.133     44.574
      3.138     45.517
      3.145     46.457
      3.147     51.201
      3.151     47.398
      3.156     51.188
      3.162     57.826
      3.168     59.716
      3.172     62.559
      3.178     57.805
      3.184     57.796
      3.189     55.891
      3.193     56.835
      3.198     75.816
      3.199    105.244
      3.208    105.232
      3.214     99.528
      3.219    100.470
      3.222    106.163
      3.223    114.706
      3.224    125.147
      3.226    135.588
      3.230    127.987
      3.232    114.693
      3.234    106.146
      3.235     97.600
      3.239     98.545
      3.242     98.541
      3.245     97.586
      3.250     99.479
      3.255    103.270
      3.259    105.164
      3.263    103.259
      3.267    104.203
      3.272    104.196
      3.276    105.139
      3.286    107.975
      3.293    112.712
      3.304    114.595
      3.314    114.582
      3.321    113.623
      3.331    114.559
      3.338    113.600
      3.348    114.535
      3.357    117.372
      3.366    114.511
      3.376    107.853
      3.384    117.335
      3.392    116.376
      3.397    112.570
      3.401    107.819
      3.407    110.659
      3.411    112.551
      3.419    112.541
      3.428    112.528
      3.437    109.669
      3.447    105.858
      3.456    103.946
      3.463    108.684
      3.475    103.921
      3.482    104.860
      3.492    102.948
      3.502    105.783
      3.510    106.722
      3.514    111.462
      3.519    111.456
      3.525     84.866
      3.529     84.860
      3.533     85.804
      3.537     90.546
      3.542    101.930
      3.545     97.180
      3.547     92.430
      3.551     99.071
      3.556     99.063
      3.561     95.259
      3.566    102.848
      3.570    107.590
      3.574    105.685
      3.579    111.375
      3.582    126.561
      3.584    111.368
      3.586    137.948
      3.589    147.436
      3.591    120.852
      3.591    139.839
      3.596    114.200
      3.597    105.654
      3.601     99.004
      3.606     92.350
      3.611     94.243
      3.616    102.781
      3.621     99.925
      3.628    101.815
      3.630    104.660
      3.635    103.703
      3.641     97.050
      3.645     83.753
      3.648     70.458
      3.654     53.361
      3.654     62.855
      3.655     45.765
      3.659     43.861
      3.660     34.365
      3.660     39.112
      3.665     36.258
      3.668     27.710
      3.670     34.353
      3.674     31.498
      3.678     35.290
      3.683     35.284
      3.688     35.278
      3.692     40.018
      3.698     40.011
      3.699     49.503
      3.703     69.435
      3.707     64.681
      3.708     58.984
      3.711     54.233
      3.713     48.535
      3.716     44.733
      3.720     40.930
      3.725     44.721
      3.730     38.069
      3.737     36.160
      3.742     39.951
      3.749     38.991
      3.752     38.038
      3.758     38.031
      3.761     37.077
      3.767     35.170
      3.768     40.865
      3.782     41.795
      3.791     45.581
      3.810     59.345
      3.821     64.538
      3.829     70.472
      3.839     93.468
      3.848    100.144
      3.857    109.046
      3.863    110.530
      3.867    114.239
      3.870    119.431
      3.877    124.624
      3.880    135.009
      3.887    135.009
      3.892    140.202
      3.895    149.846
      3.900    156.522
      3.904    168.391
      3.909    191.387
      3.915    195.096
      3.920    217.350
      3.924    226.252
      3.929    248.506
      3.935    248.506
      3.939    229.219
      3.944    203.998
      3.948    178.034
      3.953    148.362
      3.958    139.460
      3.963    109.788
      3.974    106.079
      3.983     94.210
      3.993     94.210
      4.003     92.726
      4.013     96.435
      4.022     96.435
      4.032     91.984
      4.042     99.403
      4.052    101.628
      4.062     95.694
      4.081     97.919
      4.091    110.530
      4.100    104.595
      4.106    108.304
      4.110    109.788
      4.117    112.013
      4.120    106.821
      4.124     89.759
      4.128     92.726
      4.131    101.628
      4.134    112.755
      4.137    122.399
      4.140    133.526
      4.145    141.686
      4.151    141.686
      4.155    146.878
      4.161    146.137
      4.165    155.038
      4.170    160.231
      4.176    173.584
      4.182    176.551
      4.184    183.227
      4.189    199.547
      4.194    206.965
      4.199    229.961
      4.205    225.510
      4.210    231.445
      4.215    231.445
      4.219    233.670
      4.225    224.027
      4.230    217.350
      4.235    211.416
      4.240    202.514
      4.249    172.100
      4.255    150.588
      4.260    140.202
      4.265    121.657
      4.270    103.112
      4.276    104.595
      4.281    102.370
      4.285    111.272
      4.291    114.239
      4.295    124.624
      4.301    126.108
      4.306    129.075
      4.311    127.591
      4.315    135.009
      4.321    134.268
      4.326    137.235
      4.330    142.428
      4.337    139.460
      4.342    139.460
      4.345    152.813
      4.351    148.362
      4.354    152.813
      4.357    146.137
      4.362    146.137
      4.367    140.202
      4.372    149.104
      4.376    149.846
      4.387    155.780
      4.391    168.391
      4.397    169.133
      4.400    175.067
      4.406    175.067
      4.412    177.293
      4.416    184.711
      4.422    191.387
      4.428    193.613
      4.431    208.449
      4.436    220.318
      4.443    226.252
      4.447    239.605
      4.453    238.121
      4.458    248.506
      4.461    270.761
      4.467    270.761
      4.472    281.888
      4.478    275.212
      4.483    278.179
      4.488    281.146
      4.492    270.019
      4.498    267.052
      4.503    252.957
      4.510    239.605
      4.515    226.994
      4.519    221.801
      4.524    213.641
      4.530    200.289
      4.536    178.776
      4.540    182.485
      4.546    158.006
      4.551    152.813
      4.557    145.395
      4.562    134.268
      4.568    113.497
      4.572    102.370
      4.576     94.210
      4.584     94.210
      4.589     87.534
      4.593     89.759
      4.598     85.308
      4.604     86.050
      4.609     89.017
      4.615     87.534
      4.620     86.050
      4.625     90.501
      4.630     89.759
      4.637     88.275
      4.640     88.275
      4.645     80.857
      4.651     82.341
      4.657     82.341
      4.661     82.341
      4.668     83.083
      4.672     77.148
      4.678     81.599
      4.682     74.923
      4.687     72.697
      4.694     71.214
      4.699     54.152
      4.704     45.992
      4.708     37.832
      4.715     38.574
      4.719     42.283
      4.724     46.734
      4.730     51.185
      4.735     54.894
      4.741     59.345
      4.746     66.763
      4.752     72.697
      4.758     72.697
      4.761     78.632
      4.767     77.148
      4.772     67.505
      4.776     63.796
      4.779     71.214
      4.779     77.148
      4.784     77.148
      4.788     88.275
      4.791     93.468
      4.798     94.210
      4.805     89.759
      4.810     92.916
      4.815     90.344
      4.820     91.882
      4.825     90.852
      4.833     93.416
      4.842     89.815
      4.853     86.213
      4.857     89.806
      4.864     93.912
      4.869     93.395
      4.874     89.797
      4.879     94.417
      4.884     99.551
      4.894     94.922
      4.906     91.833
      4.917     90.286
      4.927     92.848
      4.939     93.355
      4.949     93.350
      4.960     85.638
      4.971     86.145
      4.976     88.197
      4.982     88.194
      4.987     85.109
      4.994     86.646
      4.999     83.561
      5.005     83.558
      5.010     83.041
      5.015     83.552
      5.020     83.549
      5.026     79.436
      5.031     74.296
      5.037     74.807
      5.047     73.259
      5.058     71.199
      5.068     64.001
      5.080     57.830
      5.090     49.605
      5.097     45.492
      5.102     48.057
      5.106     52.678
      5.108     60.382
      5.111     77.333
      5.113     73.222
      5.117     57.809
      5.119     46.507
      5.121     43.937
      5.124     40.339
      5.128     40.850
      5.129     35.199
      5.134     36.738
      5.136     40.846
      5.140     37.248
      5.147     42.895
      5.152     49.569
      5.157     55.731
      5.164     64.974
      5.169     68.566
      5.173     76.783
      5.178     89.109
      5.185     95.269
      5.192     96.293
      5.197    106.564
      5.202    112.212
      5.208    103.476
      5.211    111.693
      5.213    123.507
      5.220    120.934
      5.224    129.665
      5.228    149.183
      5.232    157.400
      5.235    148.666
      5.237    144.555
      5.249    150.712
      5.252    135.300
      5.258    118.344
      5.262     90.089
      5.266     84.949
      5.268     78.270
      5.271     76.214
      5.274     67.479
      5.278     59.258
      5.281     51.551
ENDDATA            534
ENDSUBENT          558
SUBENT        C0755008   20130710   20140110   20131212       C133
BIB                  3          9
REACTION  1(7-N-15(A,0),,EN)
          2(7-N-15(A,0),,J)
          3(7-N-15(A,0),,PTY)
          4(7-N-15(A,EL),,WID)
ANALYSIS   (SHAPE) A phase-shift analysis of the cross-section
           curve from 1.85 MeV to 4.00 MeV yielded the values
           for the resonant energies, spins and parities and
           reduced widths of the levels in this energy range.
STATUS     (TABLE) Table II, page 239.
ENDBIB               9
NOCOMMON             0          0
DATA                 5         16
DATA      1DATA      2DATA      3DATA      4DATA-APRX 4
MEV        NO-DIM     NO-DIM     KEV        KEV
      1.878        1.5         1.         4.
      2.614        2.5         1.        1.5
      2.635        2.5        -1.         5.
      2.833        0.5         1.        10.
      2.883        2.5         1.         3.
      2.944        3.5         1.         3.
       3.07        0.5        -1.       358.
      3.194        0.5         1.         5.
      3.229        2.5         1.         2.
      3.525        1.5        -1.         3.
      3.587        2.5         1.        1.5
      3.648        2.5        -1.        35.
      3.705        4.5        -1.         3.
       3.78        0.5        -1.        64.
       3.92        3.5         1.                   40.
       3.94        1.5         1.                   10.
ENDDATA             18
ENDSUBENT           32
SUBENT        C0755009   20130710   20140110   20131212       C133
BIB                  4          9
REACTION  1(7-N-15(A,0),,EN)
          2(7-N-15(A,EL),,WID)
STATUS     (TABLE) Table III, page 240.
FLAG       (1.) Uncertain level.
COMMENT    Summary of positions of levels observed for which no
           spin and parity assignments have been made. The level
           widths are estimated from the data. They have not
           been corrected for beam energy spread and target
           thickness.
ENDBIB               9
NOCOMMON             0          0
DATA                 3         15
DATA      1DATA      2FLAG
MEV        KEV        NO-DIM
      4.127         8.
       4.22        80.
       4.49        90.
       4.53                    1.
      4.700        30.
      4.780         8.
       4.93       260.
      5.005         8.         1.
      5.018         5.         1.
      5.116         8.
      5.203         8.
      5.232         6.
       5.25        65.
      5.284        10.
      5.481        10.
ENDDATA             17
ENDSUBENT           31
ENDENTRY             9
