ENTRY            10457   19990202   19990304
SUBENT        10457001   19990202   19990304
BIB                  7          9
INSTITUTE  (1USACOL)
REFERENCE  (J,PR/C,10,1910,197411)
AUTHOR     (G.HACKEN,H.I.LIOU,H.S.CAMARDA,W.J.MAKOFSKE,F.RAHN,
           J.RAINWATER,M.SLAGOWITZ,S.WYNCHANK)
TITLE      Neutron resonance spectroscopy. XVI. 113In, 115In.
FACILITY   (SYNCH) Nevis Laboratories synchrocyclotron
STATUS     No reply from author to author proof.
HISTORY    (19751107C)
           (19800519A) REFERENCE update
ENDBIB               9
NOCOMMON             0          0
ENDSUBENT           12
SUBENT        10457002   19990202   19990304
BIB                  7         12
REACTION  1(49-IN-113(N,0),,EN)
          2(49-IN-113(N,EL),,WID/RED,,G)
          3(49-IN-113(N,G),,WID)
SAMPLE     Natural indium and In2O3 samples enriched to 99.5%
            115In.
METHOD     From transmission  on natural indium sample and
            self-indication measurements on natural and enriched
            sample.
DETECTOR   Plastic scintillators for self-indication measurements.
ERR-ANALYS (DATA-ERR) No information on source of uncertainty.
FLAG       (1.) Isotopic assignment based on 113In data of Coceva.
HISTORY    (19830614A) Subentries 2,5 combined.
ENDBIB              12
COMMON               1          3
MOMENTUM L
NO-DIM
0.
ENDCOMMON            3
DATA                 7         49
DATA      1DATA-ERR  1DATA      2DATA-ERR  2DATA      3DATA-ERR  3
FLAG
EV         EV         MILLI-EV   MILLI-EV   MILLI-EV   MILLI-EV
NO-DIM
   4.70    0.03       0.032      0.005

  14.65    0.04       0.75       0.25

  21.55    0.01       0.30       0.02

  24.99    0.01       0.93       0.02        80.        5.

  26.78    0.02       0.020      0.005
 1.
  32.24    0.02       0.67       0.04        72.       10.

  44.71    0.03       0.15       0.02

  45.38    0.04       0.125      0.005

  70.29    0.04       0.45       0.03

  91.59    0.04       1.57       0.55

  93.00    0.05       0.22       0.02

 103.95    0.05       1.5        0.1          70.       5.

 123.4     0.1        0.5        0.1
 1.
 203.4     0.2        1.33       0.07

 228.5     0.2        1.2        0.3

 234.5     0.2        0.42       0.04

 236.1     0.2        0.22       0.06

 239.3     0.2        0.19       0.06

 241.7     0.2        0.53       0.06

 270.5     0.1        0.27       0.04
 1.
 276.8     0.1        0.10       0.04

 304.3     0.1        0.36       0.04
 1.
 313.9     0.2        0.20       0.05

 325.8     0.2        0.32       0.06

 441.4     0.3        0.33       0.04
 1.
 511.6     0.3        0.87       0.10

 544.8     0.3        1.8        0.1

 555.4     0.4        0.50       0.05

 582.9     0.4        2.3        0.1

 593.0     0.4        0.85       0.05

 625.5     0.4        1.4        0.1

 660.8     0.5        1.44       0.09

 714.6     0.5        1.7        0.2

 769.9     0.6        1.3        0.1

 777.6     0.6        0.57       0.05
 1.
 785.3     0.6        0.73       0.05

 809.4     0.6        0.67       0.05

 912.0     0.4        3.0        0.4

1064.6     0.5        0.7        0.1

1230.0     0.6        1.6        0.2
 1.
1254.6     0.6        1.7        0.2

1729.7     1.0        0.5        0.1
 1.
1761.9     1.0        1.5        0.3
 1.
1872.9     1.1        1.8        0.3
 1.
1885.2     1.1        0.5        0.1
 1.
1911.8     1.1        1.14       0.22
 1.
1974.0     1.2        0.86       0.25
 1.
1988.4     1.2        0.56       0.20
 1.
1996.0     1.2        0.6        0.2
 1.
ENDDATA            102
ENDSUBENT          123
SUBENT        10457003   19990202   19990304
BIB                  7         15
REACTION  1(49-IN-115(N,0),,EN)
          2(49-IN-115(N,0),,L)
          3(49-IN-115(N,EL),,WID/RED,,G)
          4(49-IN-115(N,G),,WID)
SAMPLE     Natural indium and In2O3 samples enriched to 99.5%
            115In.
METHOD     From transmission  on natural indium sample and
            self-indication measurements on natural and enriched
            sample.
DETECTOR   Plastic scintillators for self-indication measurements.
ERR-ANALYS (DATA-ERR) No information on source of uncertainty.
FLAG       (1.) Isotopic assignment based on fact that levels were
            not observed in 113In data of Coceva.
HISTORY    (19800519A) Momentum data added
           (19830614A) Subentries 3,6 combined.
ENDBIB              15
NOCOMMON             0          0
DATA                 8        232
DATA      1DATA-ERR  1DATA      2DATA      3DATA-ERR  3DATA      4
DATA-ERR  4FLAG
EV         EV         NO-DIM     MILLI-EV   MILLI-EV   MILLI-EV
MILLI-EV   NO-DIM
   3.85    0.01        0.        0.086      0.008

   9.04    0.03        0.        0.27       0.03

  12.02    0.04        0.        0.016      0.001

  22.73    0.01        0.        0.107      0.004        81.
  5.
  29.70    0.02        1.        0.0003     0.0002

  39.60    0.03        0.        0.33       0.02         76.
  5.
  46.36    0.04        0.        0.018      0.001

  48.14    0.04        0.        0.036      0.007        90.
  5.
  62.98    0.03        0.        0.047      0.006        95.
 10.
  69.49    0.03        0.        0.024      0.006

  73.08    0.04        1.        0.0007     0.0004
            1.
  80.87    0.04        0.        0.083      0.006        70.
 10.
  83.28    0.04        0.        0.36       0.04         73.
  5.
  86.36    0.04        1.        0.003      0.002
            1.
  94.34    0.05        0.        0.15       0.02         90.
 10.
 100.83    0.05        1.        0.002      0.001

 110.90    0.06        1.        0.002      0.001

 114.43    0.06        0.        0.005      0.001

 120.71    0.07        1.        0.001      0.001

 123.60    0.07        1.        0.001      0.001

 125.88    0.08        0.        0.17       0.01         65.
 20.
 132.81    0.08        0.        0.23       0.04        180.
 50.
 144.04    0.09        0.        0.006      0.001

 145.76    0.09        1.        0.0025     0.0013
            1.
 150.3     0.1         0.        0.19       0.01         85.
 10.
 158.6     0.1         1.        0.006      0.004
            1.
 162.4     0.1         1.        0.005      0.003
            1.
 164.7     0.1         0.        0.70       0.04         82.
 10.
 168.1     0.1         0.        0.081      0.004

 174.1     0.1         0.        0.008      0.004

 177.9     0.1         0.        0.11       0.02         80.
 20.
 187.0     0.1         0.        0.73       0.07        100.
 20.
 192.2     0.2         1.        0.0017     0.0009

 194.5     0.2         1.        0.004      0.002
            1.
 198.8     0.2         1.        0.0026     0.0015
            1.
 205.6     0.2         0.        0.80       0.20

 211.9     0.2         0.        0.017      0.003

 214.1     0.2         1.        0.006      0.001
            1.
 224.0     0.2         0.        1.07       0.20         60.
 15.
 226.8     0.2         0.        0.044      0.026

 246.7     0.2         1.        0.006      0.004
            1.
 250.2     0.2         0.        1.9        0.1          85.
 10.
 267.0     0.1         0.        0.12       0.01

 282.3     0.1         1.        0.006      0.003
            1.
 288.9     0.1         0.        0.59       0.06

 294.3     0.1         0.        1.3        0.3

 302.5     0.1         1.        0.003      0.001

 304.3     0.1         1.        0.003      0.002

 308.4     0.1         1.        0.004      0.002
            1.
 319.5     0.2         0.        0.42       0.03

 329.6     0.2         1.        0.006      0.003
            1.
 336.7     0.2         1.        0.006      0.003
            1.
 339.8     0.2         0.        0.052      0.003

 345.2     0.2         1.        0.008      0.004
            1.
 354.1     0.2         0.        0.17       0.05

 362.1     0.2         0.        0.29       0.01

 366.9     0.2         1.        0.009      0.003
            1.
 370.9     0.2         0.        0.18       0.01

 379.1     0.2         0.        0.016      0.003

 383.0     0.2         0.        0.03       0.01

 384.2     0.2         0.        0.15       0.02

 402.3     0.2         0.        0.78       0.16

 411.6     0.2         0.        0.77       0.15

 423.0     0.2         0.        0.25       0.03

 431.2     0.3         1.        0.005      0.003

 437.2     0.3         0.        0.025      0.002

 448.9     0.3         0.        0.30       0.05

 453.9     0.3         0.        0.49       0.10

 456.8     0.3         0.        0.45       0.05

 469.6     0.3         0.        0.12       0.02

 473.6     0.3         1.        0.013      0.007

 477.6     0.3         0.        0.072      0.005

 488.0     0.3         1.        0.015      0.005
            1.
 493.7     0.3         1.        0.011      0.005
            1.
 498.2     0.3         0.        0.066      0.005

 501.9     0.3         0.        0.023      0.008

 503.7     0.3         0.        0.56       0.09

 506.2     0.3         0.        0.024      0.012

 513.1     0.3         0.        0.004      0.002

 515.4     0.3         0.        0.074      0.005

 525.5     0.3         0.        0.31       0.05

 530.1     0.3         0.        0.020      0.002

 547.9     0.3         0.        0.116      0.005

 551.1     0.4         0.        0.035      0.002

 559.7     0.4         0.        0.013      0.007
            1.
 562.6     0.4         0.        0.020      0.002

 569.6     0.4         0.        0.011      0.006
            1.
 571.9     0.4         0.        0.74       0.05

 580.2     0.4         0.        0.16       0.01

 589.1     0.4         0.        0.14       0.01

 602.2     0.4         0.        0.043      0.009

 610.0     0.4         0.        0.017      0.001
            1.
 614.1     0.4         0.        0.76       0.04

 619.6     0.4         0.        0.34       0.03

 643.9     0.5         0.        0.095      0.005

 647.1     0.5         0.        0.073      0.004

 654.8     0.5         0.        0.176      0.007

 674.0     0.5         0.        0.217      0.005

 683.2     0.5         0.        0.060      0.005

 694.6     0.5         0.        0.079      0.004

 699.1     0.5         0.        0.023      0.012
            1.
 704.8     0.5         0.        0.043      0.004
            1.
 707.8     0.5         0.        0.11       0.02

 719.8     0.5         0.        0.058      0.005

 724.1     0.5         0.        0.018      0.009
            1.
 727.8     0.5         0.        0.062      0.004

 733.3     0.5         0.        0.228      0.005

 752.7     0.5         0.        0.042      0.004

 760.1     0.6         0.        0.02       0.01
            1.
 774.0     0.6         0.        0.38       0.04

 783.5     0.6         0.        0.284      0.007

 789.6     0.6         0.        0.30       0.02

 795.1     0.6         0.        0.10       0.07

 800.6     0.6         0.        0.015      0.08

 812.6     0.6         0.        0.009      0.005
            1.
 815.7     0.6         0.        0.059      0.011

 819.4     0.3         0.        0.15       0.02

 829.8     0.3         0.        0.19       0.01

 836.7     0.3         0.        0.31       0.02

 853.5     0.3         0.        1.00       0.07

 861.1     0.3         0.        0.39       0.07

 863.9     0.3         0.        0.32       0.07

 869.4     0.4         0.        0.027      0.014
            1.
 875.1     0.4         0.        0.117      0.007

 882.6     0.4         0.        0.013      0.007

 891.6     0.4         0.        0.266      0.007

 899.0     0.4         0.        0.059      0.008

 906.8     0.4         0.        0.010      0.005

 913.9     0.4         0.        0.23       0.01

 923.4     0.4         0.        0.10       0.03

 931.9     0.4         0.        0.037      0.020

 943.7     0.4         0.        0.018      0.009
            1.
 948.1     0.4         0.        0.85       0.05

 956.6     0.4         0.        0.51       0.03

 973.8     0.4         0.        0.02       0.01
            1.
 978.0     0.4         0.        0.58       0.03

 981.8     0.4         0.        0.046      0.007
            1.
 998.0     0.4         0.        0.53       0.03

1007.1     0.4         0.        0.013      0.007

1019.5     0.4         0.        0.014      0.007

1035.7     0.5         0.        0.11       0.02

1043.0     0.5         0.        0.81       0.06

1049.1     0.5         0.        0.081      0.010

1055.1     0.5         0.        0.016      0.008

1060.3     0.5         0.        0.20       0.01

1075.1     0.5         0.        0.54       0.06

1085.8     0.5         0.        0.51       0.03

1103.7     0.5         0.        0.02       0.01

1111.7     0.5         0.        0.197      0.009

1140.2     0.5         0.        0.28       0.01

1170.3     0.5         0.        0.24       0.03

1179.7     0.6         0.        0.28       0.01

1188.0     0.6         0.        0.044      0.020

1190.8     0.6         0.        0.048      0.006

1199.3     0.6         0.        0.012      0.006

1213.1     0.6         0.        0.69       0.09

1216.6     0.6         0.        0.14       0.07

1224.2     0.6         0.        0.57       0.06

1237.8     0.6         0.        0.021      0.010

1243.1     0.6         0.        0.30       0.03

1270.1     0.6         0.        0.05       0.03
            1.
1276.8     0.6         0.        0.077      0.035
            1.
1281.2     0.6         0.        0.23       0.01

1304.7     0.6         0.        0.025      0.013
            1.
1309.3     0.6         0.        0.196      0.009

1325.0     0.6         0.        0.16       0.06
            1.
1330.9     0.7         0.        0.18       0.01

1334.3     0.7         0.        0.11       0.01

1342.3     0.7         0.        0.11       0.01
            1.
1346.0     0.7         0.        0.19       0.01
            1.
1349.8     0.7         0.        0.40       0.06

1357.9     0.7         0.        0.099      0.009

1367.6     0.7         0.        0.022      0.010

1372.4     0.7         0.        0.038      0.020

1389.3     0.7         0.        0.14       0.01

1397.9     0.7         0.        0.17       0.02

1402.1     0.7         0.        0.10       0.01

1415.9     0.7         0.        0.33       0.03

1421.0     0.7         0.        0.043      0.020

1430.6     0.8         0.        0.12       0.01

1441.8     0.8         0.        0.038      0.007

1448.6     0.8         0.        0.041      0.008

1460.7     0.8         0.        0.029      0.015

1468.4     0.8         0.        0.38       0.06

1480.0     0.8         0.        0.09       0.01

1484.7     0.8         0.        0.007      0.004
            1.
1492.6     0.8         0.        0.056      0.025

1520.6     0.8         0.        0.56       0.04

1546.1     0.8         0.        0.35       0.04

1554.4     0.8         0.        0.12       0.06

1562.9     0.8         0.        0.063      0.030
            1.
1567.1     0.9         0.        0.26       0.03

1579.9     0.9         0.        0.038      0.015

1595.5     0.9         0.        0.39       0.04

1614.0     0.9         0.        0.47       0.05

1619.3     0.9         0.        2.34       0.26

1640.9     0.9         0.        0.57       0.03

1646.4     0.9         0.        0.030      0.15
            1.
1654.7     0.9         0.        0.029      0.15

1663.9     0.9         0.        1.35       0.20

1676.3     0.9         0.        0.032      0.010
            1.
1678.6     0.9         0.        0.15       0.03

1688.6     1.0         0.        1.83       0.17

1693.3     1.0         0.        0.073      0.035
            1.
1704.6     1.0         0.        0.024      0.012
            1.
1711.6     1.0         0.        0.63       0.07

1723.3     1.0         0.        0.096      0.024
            1.
1736.1     1.0         0.        0.72       0.12

1739.6     1.0         0.        0.11       0.04
            1.
1764.2     1.0         0.        0.071      0.025

1780.5     1.0         0.        0.071      0.007

1789.8     1.0         0.        0.035      0.012

1797.1     1.0         0.        0.52       0.05

1808.6     1.0         0.        0.047      0.007

1813.9     1.0         0.        0.031      0.009

1826.7     1.0         0.        0.035      0.012
            1.
1830.9     1.1         0.        0.054      0.005
            1.
1843.9     1.1         0.        0.093      0.023

1855.6     1.1         0.        0.58       0.06

1865.8     1.1         0.        0.15       0.02

1877.9     1.1         0.        0.076      0.015

1891.4     1.1         0.        1.72       0.23

1904.4     1.1         0.        0.16       0.02

1919.3     1.1         0.        0.46       0.05

1925.6     1.1         0.        0.032      0.013
            1.
1939.6     1.2         0.        0.23       0.02

1948.4     1.2         0.        0.41       0.02

1959.6     1.2         0.        0.45       0.09

1968.6     1.2         0.        0.22       0.05

1981.8     1.2         0.        0.45       0.05

1992.7     1.2         0.        0.027      0.014
            1.
2003.7     1.2         0.        0.20       0.04

ENDDATA            468
ENDSUBENT          488
NOSUBENT      10457004     830614
NOSUBENT      10457005     830614
NOSUBENT      10457006     830614
SUBENT        10457007   19990202   19990304
BIB                  3          4
REACTION  1(49-IN-115(N,EL),,STF)
          2(49-IN-115(N,0),,D)
ERR-ANALYS (DATA-ERR) No information on source of uncertainty.
HISTORY    (19830614A) Subentries 4,7 combined.
ENDBIB               4
NOCOMMON             0          0
DATA                 8          2
EN-MIN     EN-MAX     DATA      1+DATA-ERR 1-DATA-ERR 1DATA      2
DATA-ERR  2MOMENTUM L
EV         EV         NO-DIM     NO-DIM     NO-DIM     EV
EV         NO-DIM
  3.85      2003.7       0.26E-04   0.03E-04   0.03E-04 9.4
 0.2        0.
 29.70       493.7       2.70E-04   1.00E-04   0.07E-04
            1.
ENDDATA              8
ENDSUBENT           17
SUBENT        10457008   19990202   19990304
BIB                  8         10
REACTION   (49-IN-0(N,TOT),,SIG,,RAW)
            Uncorrected cross section
SAMPLE     Natural indium sample, sample thickness 29.480 b/atom.
METHOD     (TOF) Time-of-flight, 200-m flight path.
DETECTOR   (NAICR) Sodium-iodide crystals viewing a boron slab.
CORRECTION Data have been corrected for background since average
            background is not well defined.
ERR-ANALYS No information on uncertainties.
STATUS     Data received on magnetic tape from G. Hacken.
HISTORY    (19990202A) Data translated from CSISRS/A.
ENDBIB              10
NOCOMMON             0          0
DATA                 2       8192
EN         DATA
EV         B
  2280.954      7.08
  2279.463      4.92
  2277.975      4.44
  2276.486      7.85
  2274.999      8.43
  2273.516      6.27
  2272.032      6.99
  2270.549     10.62
  2269.070     25.75
  2267.590     26.64
  2266.111     19.44
  2264.637     18.71
  2263.161     13.00
  2261.687      7.39
  2260.217      5.91
  2258.746      7.23
  2257.275      8.36
  2255.810      9.35
  2254.343     14.87
  2252.877     16.87
  2251.415     11.08
  2249.953      7.69
  2248.491     10.97
  2247.034     20.58
  2245.575     25.27
  2244.118     10.92
  2242.666      7.37
  2241.211      4.64
  2239.758      3.88
  2238.310      5.50
  2236.859      6.10
  2235.411      5.02
  2233.966      5.81
  2232.520      6.89
  2231.076      4.16
  2229.636      6.42
  2228.194      7.08
  2226.754      6.50
  2225.318      4.95
  2223.880      4.74
  2222.444      5.30
  2221.012      5.19
  2219.579      4.89
  2218.147      7.05
  2216.719      4.86
  2215.290      3.54
  2213.862      4.67
  2212.439      5.14
  2211.013      6.57
  2209.590      6.22
  2208.170      6.61
  2206.749      7.31
  2205.330      5.35
  2203.915      4.57
  2202.497      4.31
  2201.082      7.60
  2199.671      8.73
  2198.259     16.58
  2196.846     20.04
  2195.439     13.92
  2194.031      6.03
  2192.624      5.95
  2191.220      7.15
  2189.816      4.91
  2188.412      3.00
  2187.013      5.92
  2185.613      7.65
  2184.214      6.87
  2182.819      3.67
  2181.422      7.92
  2180.027     12.02
  2178.636     14.52
  2177.243     11.74
  2175.852      9.58
  2174.465      5.46
  2173.077      4.93
  2171.689      4.69
  2170.306      3.89
  2168.922      3.23
  2167.538      4.55
  2166.159      3.94
  2164.779      6.70
  2163.399      5.98
  2162.024      4.49
  2160.647      7.63
  2159.272      6.37
  2157.901      5.35
  2156.528      3.16
  2155.157      7.72
  2153.790      9.99
  2152.421     14.18
  2151.053      8.90
  2149.690      4.21
  2148.325      4.70
  2146.961      6.93
  2145.602      5.46
  2144.241      5.34
  2142.881      6.40
  2141.525      8.32
  2140.168      5.14
  2138.813      6.22
  2137.460      4.78
  2136.107      6.37
  2134.756      4.82
  2133.407      6.50
  2132.058      6.73
  2130.710     10.51
  2129.366     22.11
  2128.020     28.73
  2126.676     24.70
  2125.335     11.09
  2123.994      7.28
  2122.654      4.89
  2121.317      5.10
  2119.979      6.09
  2118.642      4.68
  2117.310      2.45
  2115.975      3.11
  2114.642      4.35
  2113.314      3.46
  2111.983      3.94
  2110.654      6.33
  2109.329      6.28
  2108.002      8.92
  2106.677     10.57
  2105.355      6.21
  2104.032      6.54
  2102.710      5.97
  2101.393      6.48
  2100.074      5.31
  2098.756      6.65
  2097.442      5.58
  2096.127      7.69
  2094.812      4.66
  2093.502      5.47
  2092.190      6.41
  2090.880      7.09
  2089.573     17.81
  2088.265     18.88
  2086.958     18.29
  2085.656     22.15
  2084.351     15.35
  2083.048      7.84
  2081.749      2.48
  2080.448      6.04
  2079.148      6.41
  2077.853      5.44
  2076.555      4.66
  2075.260      3.12
  2073.968      4.67
  2072.674      4.42
  2071.382      3.70
  2070.094      2.97
  2068.804      4.81
  2067.515      6.91
  2066.231      7.69
  2064.945      7.89
  2063.659      7.05
  2062.378      5.34
  2061.095      6.56
  2059.814      5.14
  2058.537     13.01
  2057.257     13.79
  2055.980      7.83
  2054.706      6.35
  2053.430      6.86
  2052.156      6.08
  2050.886      5.86
  2049.614      5.91
  2048.343      6.80
  2047.073      8.88
  2045.808      7.28
  2044.541      5.41
  2043.275      4.90
  2042.012      8.64
  2040.749      4.08
  2039.486      7.32
  2038.227      5.72
  2036.967      6.40
  2035.708      6.07
  2034.453      4.27
  2033.196      5.42
  2031.941      5.10
  2030.689      4.66
  2029.436      7.02
  2028.184      5.67
  2026.936      6.32
  2025.686      2.90
  2024.437      4.52
  2023.193      5.79
  2021.946      9.06
  2020.701     12.26
  2019.460      8.61
  2018.217     10.12
  2016.976      9.98
  2015.738      6.37
  2014.498      4.18
  2013.260      5.99
  2012.025      4.35
  2010.790      4.47
  2009.555      5.61
  2008.324      4.55
  2007.091      4.90
  2005.860      4.99
  2004.632      4.54
  2003.403      8.01
  2002.175      9.61
  2000.950      7.65
  1999.725      6.90
  1998.500      5.59
  1997.279      4.76
  1996.057      5.80
  1994.836      6.49
  1993.618      6.02
  1992.399      5.76
  1991.181      6.06
  1989.967      4.14
  1988.751      3.74
  1987.537      3.66
  1986.325      3.32
  1985.113      5.64
  1983.902      5.91
  1982.695      8.84
  1981.486     11.42
  1980.278     15.13
  1979.073     10.80
  1977.867      7.28
  1976.663      3.12
  1975.462      5.85
  1974.260      6.37
  1973.058      7.11
  1971.861      6.55
  1970.661      6.54
  1969.464      7.29
  1968.269     10.06
  1967.073     13.21
  1965.878      6.20
  1964.687      5.94
  1963.495      5.96
  1962.303      5.18
  1961.115      5.44
  1959.926     10.65
  1958.738     16.14
  1957.553      8.47
  1956.367      7.51
  1955.182      5.93
  1954.000      4.54
  1952.817      6.99
  1951.635      5.51
  1950.458      5.08
  1949.277     10.03
  1948.099     14.79
  1946.924     16.34
  1945.748      9.07
  1944.572      6.53
  1943.400      4.66
  1942.227      7.38
  1941.055      5.25
  1939.886      6.99
  1938.716      7.94
  1937.547      8.12
  1936.382      5.58
  1935.215      6.10
  1934.049      6.23
  1932.886      3.90
  1931.723      4.09
  1930.560      4.48
  1929.401      6.10
  1928.240      6.85
  1927.081      4.91
  1925.924      3.95
  1924.767      6.48
  1923.611      6.61
  1922.458      5.80
  1921.303      6.84
  1920.150      9.61
  1919.000     14.14
  1917.849     11.93
  1916.698     10.51
  1915.552      7.56
  1914.404      6.54
  1913.257      6.53
  1912.113      6.70
  1910.968      5.25
  1909.824      6.52
  1908.683      6.22
  1907.541      6.28
  1906.400      5.13
  1905.263      8.36
  1904.124      7.42
  1902.986      7.22
  1901.851      5.56
  1900.715      5.13
  1899.581      4.56
  1898.449      7.05
  1897.316      4.88
  1896.185      5.57
  1895.056      6.60
  1893.927      6.56
  1892.798      9.64
  1891.672     20.11
  1890.546     43.35
  1889.420     35.20
  1888.298     17.24
  1887.174      8.06
  1886.051      4.96
  1884.932      4.63
  1883.811      4.34
  1882.691      3.89
  1881.575      2.78
  1880.457      4.89
  1879.340      3.58
  1878.227      6.44
  1877.112      6.65
  1875.999      6.93
  1874.888      6.81
  1873.776      6.17
  1872.665      4.76
  1871.558      4.75
  1870.449      3.24
  1869.341      5.65
  1868.237      4.13
  1867.131      5.62
  1866.026      6.63
  1864.924      8.54
  1863.822      6.49
  1862.720      2.18
  1861.621      4.01
  1860.521      4.90
  1859.422      4.96
  1858.326      2.35
  1857.229      6.97
  1856.133      9.93
  1855.040     14.13
  1853.946      7.43
  1852.853      6.18
  1851.763      5.26
  1850.671      6.41
  1849.581      6.62
  1848.494      5.15
  1847.406      5.38
  1846.318      3.33
  1845.234      5.36
  1844.148      3.84
  1843.064      4.24
  1841.982      6.49
  1840.900      6.96
  1839.818      5.47
  1838.740      4.50
  1837.660      4.73
  1836.581      1.97
  1835.506      2.90
  1834.429      3.83
  1833.353      6.01
  1832.280      5.23
  1831.206      7.42
  1830.133      6.23
  1829.063      5.85
  1827.991      4.58
  1826.921      3.37
  1825.854      5.16
  1824.785      4.09
  1823.718      4.04
  1822.654      3.96
  1821.588      5.39
  1820.523      4.81
  1819.462      4.51
  1818.399      5.03
  1817.337      4.11
  1816.278      4.65
  1815.218      4.08
  1814.159      7.05
  1813.103      7.19
  1812.046      5.75
  1810.989      6.18
  1809.936      4.12
  1808.882      5.24
  1807.828      5.33
  1806.778      5.21
  1805.726      7.84
  1804.675      4.41
  1803.627      5.32
  1802.578      4.06
  1801.530      3.40
  1800.485      4.42
  1799.438      5.38
  1798.394      5.66
  1797.351     12.38
  1796.307     22.92
  1795.265     18.43
  1794.225     10.38
  1793.185      4.98
  1792.145      4.89
  1791.108      6.92
  1790.070      4.30
  1789.032      5.69
  1787.998      5.83
  1786.963      5.85
  1785.929      4.74
  1784.897      3.78
  1783.864      3.73
  1782.832      5.32
  1781.804      4.16
  1780.774      5.00
  1779.745      8.52
  1778.719      5.60
  1777.691      3.93
  1776.665      5.98
  1775.641      4.61
  1774.617      4.49
  1773.593      4.99
  1772.572      3.52
  1771.550      5.32
  1770.529      4.80
  1769.510      4.22
  1768.491      5.95
  1767.472      3.50
  1766.457      6.19
  1765.440      5.10
  1764.425      5.75
  1763.409      5.93
  1762.397      6.75
  1761.384      6.01
  1760.372      3.55
  1759.363      5.46
  1758.352      5.60
  1757.342      4.35
  1756.335      4.02
  1755.327      3.97
  1754.320      3.79
  1753.316      4.30
  1752.311      3.97
  1751.306      4.38
  1750.304      4.19
  1749.301      3.51
  1748.299      4.06
  1747.301      4.12
  1746.301      4.86
  1745.301      6.26
  1744.304      4.51
  1743.307      5.23
  1742.310      3.88
  1741.316      3.28
  1740.321      7.05
  1739.327     13.22
  1738.335     13.54
  1737.343     13.78
  1736.351     15.07
  1735.362     19.03
  1734.372     13.24
  1733.383      8.53
  1732.397      5.68
  1731.409      4.03
  1730.422      5.66
  1729.439      5.16
  1728.454      6.94
  1727.469      3.80
  1726.488      5.50
  1725.506      7.06
  1724.524      2.59
  1723.546      7.15
  1722.565      7.82
  1721.587      7.01
  1720.610      5.95
  1719.633      6.74
  1718.656      6.19
  1717.683      5.99
  1716.708      3.59
  1715.734      6.31
  1714.762      4.75
  1713.790      9.16
  1712.818      9.66
  1711.849     12.79
  1710.880     16.79
  1709.910     11.08
  1708.944      9.31
  1707.976      8.53
  1707.010      7.53
  1706.046      7.72
  1705.081      6.56
  1704.116      5.06
  1703.155      7.20
  1702.193      4.85
  1701.231      8.03
  1700.272      7.20
  1699.312      6.60
  1698.352      3.22
  1697.396      6.18
  1696.438      6.09
  1695.481      4.61
  1694.527      4.31
  1693.572     10.95
  1692.617      8.45
  1691.665      7.25
  1690.713      8.13
  1689.761     13.51
  1688.811     30.95
  1687.861     42.29
  1686.911     31.19
  1685.964     13.86
  1685.016      7.24
  1684.069      7.72
  1683.125      3.62
  1682.179      4.59
  1681.234      4.25
  1680.292      3.55
  1679.348      8.07
  1678.406     10.65
  1677.466     10.28
  1676.525      5.22
  1675.585      5.86
  1674.648      6.08
  1673.710      6.10
  1672.771      6.56
  1671.837      4.56
  1670.901      3.11
  1669.965      7.12
  1669.033      6.59
  1668.099      7.26
  1667.166      5.06
  1666.235      6.24
  1665.304      9.89
  1664.373     18.88
  1663.445     32.35
  1662.516     25.34
  1661.588     12.48
  1660.662      7.90
  1659.735      4.11
  1658.809      6.14
  1657.886      6.64
  1656.962      2.89
  1656.038      4.50
  1655.116      6.56
  1654.194      6.63
  1653.273      4.17
  1652.354      7.25
  1651.435      3.11
  1650.516      6.58
  1649.599      5.90
  1648.681      5.81
  1647.765      4.73
  1646.851      5.17
  1645.936      7.33
  1645.021      6.27
  1644.109      4.20
  1643.196      6.24
  1642.284     10.74
  1641.374     12.14
  1640.463     22.83
  1639.553     17.38
  1638.646     10.69
  1637.738      7.96
  1636.830      5.31
  1635.925      4.42
  1635.019      5.66
  1634.114      5.08
  1633.211      5.18
  1632.307      3.53
  1631.404      4.59
  1630.503      5.99
  1629.602      2.22
  1628.700      4.21
  1627.802      7.08
  1626.903      6.18
  1626.004      5.74
  1625.108     12.55
  1624.211     16.25
  1623.314     13.62
  1622.421     15.45
  1621.525     22.46
  1620.631     27.96
  1619.740     28.53
  1618.847     26.87
  1617.955     16.21
  1617.065      7.84
  1616.175      7.87
  1615.285      7.61
  1614.398     16.27
  1613.510     25.07
  1612.622     22.11
  1611.737     10.31
  1610.851      7.46
  1609.965      5.44
  1609.082      6.99
  1608.198      7.93
  1607.315      8.17
  1606.435      4.85
  1605.552      4.20
  1604.672      4.04
  1603.793      4.36
  1602.914      4.62
  1602.035      3.97
  1601.158      4.44
  1600.281      5.23
  1599.404      5.73
  1598.530      5.44
  1597.655      4.85
  1596.780      8.85
  1595.908     15.22
  1595.035     19.60
  1594.163     12.15
  1593.293      7.18
  1592.421      6.47
  1591.551      4.88
  1590.683      4.04
  1589.815      6.60
  1588.947      3.24
  1588.081      5.14
  1587.215      5.56
  1586.348      3.13
  1585.485      4.65
  1584.620      5.29
  1583.756      4.70
  1582.895      5.85
  1582.032      4.33
  1581.170      2.95
  1580.311      4.84
  1579.451      4.94
  1578.592      6.15
  1577.734      5.43
  1576.876      2.89
  1576.019      2.96
  1575.163      3.38
  1574.307      4.60
  1573.452      4.59
  1572.598      4.85
  1571.744      5.34
  1570.891      4.90
  1570.041      6.08
  1569.188      5.59
  1568.337      6.50
  1567.488      4.97
  1566.638      9.48
  1565.789      7.93
  1564.942      5.84
  1564.094      5.71
  1563.247      4.99
  1562.402      6.95
  1561.557      6.61
  1560.711      5.03
  1559.869      6.34
  1559.025      5.60
  1558.182      3.62
  1557.342      2.92
  1556.500      2.94
  1555.659      4.85
  1554.820      2.70
  1553.981      6.34
  1553.142      7.24
  1552.305      8.34
  1551.468      8.11
  1550.631      3.00
  1549.796      4.15
  1548.960      3.95
  1548.125      6.17
  1547.293      8.45
  1546.460     13.41
  1545.626     13.76
  1544.796     14.93
  1543.965      9.38
  1543.134      4.98
  1542.305      5.60
  1541.476      3.77
  1540.647      6.48
  1539.821      4.24
  1538.993      3.62
  1538.166      4.56
  1537.342      2.71
  1536.516      4.19
  1535.691      4.37
  1534.867      3.71
  1534.045      4.04
  1533.222      5.71
  1532.400      2.50
  1531.580      4.93
  1530.759      4.92
  1529.939      4.68
  1529.122      6.98
  1528.302      7.65
  1527.484      4.53
  1526.668      5.78
  1525.851      1.90
  1525.035      2.68
  1524.221      6.95
  1523.406      6.31
  1522.592      6.09
  1521.780     10.36
  1520.967     15.12
  1520.155     18.15
  1519.345     15.37
  1518.533     10.40
  1517.723      6.02
  1516.915      6.01
  1516.105      2.59
  1515.298      4.12
  1514.491      4.65
  1513.684      2.67
  1512.878      2.70
  1512.073      5.53
  1511.268      2.85
  1510.463      3.07
  1509.661      4.35
  1508.858      3.16
  1508.055      6.13
  1507.255      5.22
  1506.453      4.15
  1505.653      3.64
  1504.854      4.75
  1504.054      4.93
  1503.256      2.37
  1502.459      6.05
  1501.661      3.77
  1500.865      2.89
  1500.070      5.76
  1499.274      4.94
  1498.479      6.95
  1497.687      4.65
  1496.893      4.51
  1496.100      2.83
  1495.309      5.17
  1494.517      5.64
  1493.725      4.86
  1492.936      6.66
  1492.146      2.55
  1491.357      5.11
  1490.570      3.04
  1489.782      4.57
  1488.994      6.73
  1488.209      4.55
  1487.423      6.07
  1486.637      2.54
  1485.854      4.55
  1485.069      7.44
  1484.286      5.25
  1483.504      5.77
  1482.721      6.17
  1481.939      4.73
  1481.160      7.08
  1480.379      6.90
  1479.599      6.21
  1478.821      7.26
  1478.042      7.29
  1477.264      5.63
  1476.489      3.98
  1475.711      3.24
  1474.935      6.69
  1474.161      5.55
  1473.385      4.69
  1472.611      8.09
  1471.839      4.70
  1471.065      6.50
  1470.292      5.04
  1469.522      6.56
  1468.750     11.70
  1467.979     12.46
  1467.211     12.91
  1466.441      7.78
  1465.672      7.06
  1464.905      9.21
  1464.137      9.34
  1463.370      6.22
  1462.605      3.51
  1461.839      2.97
  1461.073      5.68
  1460.310      3.71
  1459.546      5.29
  1458.782      5.85
  1458.021      3.37
  1457.259      5.29
  1456.496      4.00
  1455.737      3.22
  1454.976      4.25
  1454.216      6.63
  1453.458      5.57
  1452.699      4.86
  1451.941      6.22
  1451.185      7.46
  1450.427      6.23
  1449.671      5.51
  1448.917      8.92
  1448.161      4.55
  1447.407      4.58
  1446.654      7.56
  1445.900      4.00
  1445.147      4.07
  1444.397      5.14
  1443.645      5.50
  1442.894      6.12
  1442.145      3.95
  1441.395      3.08
  1440.645      5.58
  1439.898      5.82
  1439.150      5.31
  1438.402      4.20
  1437.656      3.45
  1436.909      5.07
  1436.164      6.57
  1435.420      3.88
  1434.675      4.91
  1433.931      3.24
  1433.188      5.06
  1432.446      4.07
  1431.703      5.86
  1430.962      4.33
  1430.221      6.44
  1429.480      4.88
  1428.742      5.52
  1428.002      2.65
  1427.263      3.18
  1426.527      4.31
  1425.788      5.52
  1425.052      4.89
  1424.316      4.64
  1423.580      5.24
  1422.844      5.44
  1422.111      5.46
  1421.376      5.96
  1420.642      5.82
  1419.911      6.93
  1419.178      5.42
  1418.446      4.38
  1417.715      4.49
  1416.984      5.76
  1416.254      9.30
  1415.525     15.18
  1414.796     18.82
  1414.067     14.80
  1413.340      9.54
  1412.613      3.46
  1411.885      5.06
  1411.160      4.84
  1410.435      3.39
  1409.709      4.90
  1408.986      3.56
  1408.261      3.55
  1407.537      5.37
  1406.816      4.21
  1406.093      5.85
  1405.371      4.79
  1404.651      3.77
  1403.930      4.94
  1403.209      6.41
  1402.491      8.01
  1401.772      8.55
  1401.053      5.86
  1400.336      5.38
  1399.618      7.10
  1398.902      7.72
  1398.186     10.52
  1397.470     11.33
  1396.755     10.40
  1396.042      6.56
  1395.327      2.85
  1394.613      5.80
  1393.901      4.74
  1393.189      1.75
  1392.476      1.89
  1391.766      3.69
  1391.055      5.20
  1390.344      8.09
  1389.636      8.82
  1388.927     10.03
  1388.218      9.67
  1387.511      4.89
  1386.803      6.55
  1386.096      5.75
  1385.390      5.02
  1384.684      4.88
  1383.979      5.67
  1383.275      4.33
  1382.571      3.95
  1381.866      2.87
  1381.164      6.99
  1380.461      3.80
  1379.759      6.39
  1379.058      4.80
  1378.357      5.04
  1377.656      5.83
  1376.957      3.58
  1376.257      8.56
  1375.558      7.03
  1374.861      6.53
  1374.162      5.48
  1373.465      5.13
  1372.769      4.95
  1372.073      3.35
  1371.377      7.32
  1370.682      3.73
  1369.988      4.37
  1369.293      4.19
  1368.600      6.34
  1367.907      4.92
  1367.214      7.99
  1366.523      6.75
  1365.831      5.95
  1365.140      5.08
  1364.451      6.59
  1363.760      5.49
  1363.071      5.18
  1362.383      6.24
  1361.694      4.69
  1361.006      4.76
  1360.320      5.60
  1359.633      5.08
  1358.946      6.72
  1358.261      7.34
  1357.576      5.21
  1356.891      7.55
  1356.208      7.91
  1355.524      6.89
  1354.840      5.64
  1354.159      9.31
  1353.476      4.73
  1352.794      5.87
  1352.114      5.04
  1351.433      8.44
  1350.753     15.07
  1350.074     19.08
  1349.395     10.94
  1348.716      8.98
  1348.038      8.15
  1347.361     10.34
  1346.684     12.22
  1346.007     11.09
  1345.332     10.15
  1344.656      9.00
  1343.981      5.73
  1343.308      5.89
  1342.633      7.50
  1341.960      7.35
  1341.288      8.23
  1340.615      7.65
  1339.943      4.51
  1339.272      6.18
  1338.601      1.92
  1337.930      3.82
  1337.261      2.45
  1336.592      6.09
  1335.922      7.25
  1335.255      6.16
  1334.587      7.37
  1333.919      7.82
  1333.253      7.44
  1332.586      6.29
  1331.920      6.06
  1331.256      9.47
  1330.591     10.52
  1329.926     12.37
  1329.263     12.08
  1328.600     11.86
  1327.936      7.21
  1327.275      7.53
  1326.613      5.40
  1325.951     10.34
  1325.291      9.97
  1324.630     12.00
  1323.969     10.36
  1323.312      5.79
  1322.652      4.40
  1321.993      3.40
  1321.336      5.36
  1320.679      5.57
  1320.021      4.23
  1319.366      3.56
  1318.709      2.35
  1318.053      5.13
  1317.400      5.38
  1316.745      4.30
  1316.090      3.42
  1315.438      2.93
  1314.784      3.24
  1314.131      3.19
  1313.480      6.29
  1312.828      6.33
  1312.177      3.73
  1311.527      3.35
  1310.877      6.52
  1310.227     11.86
  1309.579     12.35
  1308.930     13.58
  1308.281      6.34
  1307.634      8.19
  1306.986      5.69
  1306.340      5.07
  1305.694      7.26
  1305.048      6.56
  1304.402      5.74
  1303.759      7.46
  1303.114      6.07
  1302.469      5.27
  1301.827      6.01
  1301.183      6.54
  1300.540      5.41
  1299.899      4.28
  1299.258      3.77
  1298.616      4.43
  1297.977      5.63
  1297.336      4.19
  1296.696      5.04
  1296.058      5.38
  1295.419      5.10
  1294.781      6.29
  1294.144      5.61
  1293.506      5.07
  1292.869      4.16
  1292.234      4.19
  1291.598      4.10
  1290.962      3.92
  1290.328      5.19
  1289.693      5.67
  1289.059      4.48
  1288.426      4.99
  1287.793      3.79
  1287.160      3.65
  1286.529      6.66
  1285.897      3.84
  1285.265      3.41
  1284.636      5.06
  1284.005      4.87
  1283.375      4.82
  1282.746      5.11
  1282.117      7.37
  1281.489      9.78
  1280.861     14.37
  1280.234     15.09
  1279.606     14.17
  1278.980      7.09
  1278.354      4.82
  1277.728      5.60
  1277.104      5.19
  1276.479      6.21
  1275.854      7.79
  1275.231      4.85
  1274.608      4.88
  1273.984      3.22
  1273.363      4.09
  1272.741      3.53
  1272.119      3.40
  1271.499      4.06
  1270.878      3.88
  1270.257      5.34
  1269.638      5.02
  1269.019      4.84
  1268.400      7.86
  1267.782      4.64
  1267.164      6.14
  1266.546      5.06
  1265.930      3.54
  1265.313      3.33
  1264.697      5.60
  1264.082      4.32
  1263.466      4.18
  1262.852      4.25
  1262.238      4.24
  1261.624      6.19
  1261.010      5.05
  1260.398      5.57
  1259.786      4.07
  1259.173      3.81
  1258.562      5.90
  1257.951      7.29
  1257.340      4.59
  1256.731      2.85
  1256.120      4.75
  1255.510      5.45
  1254.902      5.34
  1254.293      6.43
  1253.686      5.55
  1253.079      7.16
  1252.471      5.71
  1251.864      4.76
  1251.259      3.00
  1250.653      3.54
  1250.047      4.04
  1249.443      2.28
  1248.838      4.54
  1248.233      4.61
  1247.630      4.12
  1247.027      4.50
  1246.424      3.17
  1245.823      5.06
  1245.220      6.50
  1244.618     14.25
  1244.018     15.73
  1243.417     16.43
  1242.817     13.08
  1242.218      9.86
  1241.619      5.48
  1241.020      3.67
  1240.422      5.50
  1239.823      5.62
  1239.226      3.01
  1238.629      1.97
  1238.032      2.90
  1237.436      3.74
  1236.841      1.35
  1236.245      4.49
  1235.650      2.74
  1235.056      4.69
  1234.462      4.95
  1233.868      5.89
  1233.275      6.24
  1232.682      6.33
  1232.089      3.86
  1231.498      4.50
  1230.906      6.25
  1230.315      5.50
  1229.725      8.06
  1229.135     12.08
  1228.544      9.72
  1227.956      7.48
  1227.366      8.06
  1226.777      7.95
  1226.190      9.47
  1225.602     11.34
  1225.014     17.55
  1224.428     22.13
  1223.842     25.88
  1223.255     19.14
  1222.670     15.64
  1222.085      7.67
  1221.500      6.41
  1220.916      7.90
  1220.332      5.37
  1219.748      4.51
  1219.166      4.86
  1218.583      5.89
  1218.000      2.52
  1217.419      7.30
  1216.838     11.24
  1216.256     11.39
  1215.676     13.23
  1215.096     11.65
  1214.516     13.14
  1213.937     14.78
  1213.358     20.42
  1212.779     21.74
  1212.202     21.17
  1211.624     10.75
  1211.047      8.02
  1210.471      5.75
  1209.893      4.21
  1209.317      7.25
  1208.742      5.12
  1208.167      5.75
  1207.592      2.84
  1207.018      8.10
  1206.444      8.09
  1205.870      4.80
  1205.297      1.04
  1204.724      4.20
  1204.151      2.48
  1203.581      5.03
  1203.009      3.48
  1202.437      4.60
  1201.867      4.06
  1201.297      5.03
  1200.727      4.09
  1200.158      3.17
  1199.588      5.46
  1199.019      4.32
  1198.452      5.12
  1197.884      7.09
  1197.316      8.73
  1196.750      4.95
  1196.182      2.97
  1195.616      6.81
  1195.051      5.24
  1194.485      4.24
  1193.920      4.99
  1193.355      4.13
  1192.791      3.38
  1192.227      4.78
  1191.663      6.78
  1191.101      6.29
  1190.538      7.69
  1189.976      5.85
  1189.415      4.87
  1188.852      3.40
  1188.291      6.72
  1187.731      6.33
  1187.170      6.27
  1186.610      4.86
  1186.052      7.02
  1185.492      5.30
  1184.933      3.98
  1184.376      5.75
  1183.817      8.95
  1183.260      2.95
  1182.704      6.05
  1182.146      6.03
  1181.590      3.22
  1181.035      4.81
  1180.479      8.68
  1179.923     15.86
  1179.369     19.13
  1178.814     15.31
  1178.260     12.99
  1177.708      9.79
  1177.154      5.71
  1176.601     10.10
  1176.049      4.63
  1175.497      5.30
  1174.945      4.34
  1174.394      6.13
  1173.843      5.69
  1173.292      3.90
  1172.743      7.32
  1172.193      5.43
  1171.643      7.20
  1171.095      9.18
  1170.546     14.19
  1169.998     17.22
  1169.451     14.67
  1168.903      9.30
  1168.355      8.25
  1167.810      4.34
  1167.263      6.19
  1166.717      3.39
  1166.173      5.50
  1165.627      5.59
  1165.082      5.02
  1164.538      5.38
  1163.994      6.42
  1163.450      4.13
  1162.908      4.89
  1162.365      7.62
  1161.822      2.83
  1161.281      4.27
  1160.739      5.50
  1160.197      5.35
  1159.657      4.92
  1159.116      5.94
  1158.575      5.22
  1158.036      4.61
  1157.497      4.33
  1156.958      5.24
  1156.419      6.18
  1155.881      4.07
  1155.343      3.84
  1154.806      6.05
  1154.269      3.56
  1153.731      4.49
  1153.196      5.79
  1152.660      4.79
  1152.124      2.22
  1151.589      5.52
  1151.053      3.63
  1150.519      4.57
  1149.986      4.65
  1149.451      6.24
  1148.918      2.25
  1148.385      6.42
  1147.852      4.29
  1147.320      6.89
  1146.789      5.95
  1146.257      6.38
  1145.725      5.31
  1145.195      6.41
  1144.664      6.20
  1144.134      3.90
  1143.605      5.99
  1143.075      4.98
  1142.546      6.41
  1142.018      6.54
  1141.490      7.03
  1140.961     10.13
  1140.435     15.80
  1139.907     16.82
  1139.380     15.64
  1138.854     13.37
  1138.328      7.52
  1137.802      5.78
  1137.278      3.69
  1136.752      3.50
  1136.227      5.14
  1135.704      5.27
  1135.180      4.23
  1134.656      5.20
  1134.133      3.85
  1133.610      6.19
  1133.088      4.98
  1132.566      6.12
  1132.044      4.18
  1131.523      6.10
  1131.002      3.52
  1130.481      3.12
  1129.961      6.26
  1129.442      4.59
  1128.922      5.23
  1128.403      3.30
  1127.884      6.32
  1127.365      4.13
  1126.847      6.15
  1126.330      4.90
  1125.813      5.03
  1125.295      4.19
  1124.779      8.45
  1124.262      4.72
  1123.746      4.34
  1123.231      2.94
  1122.715      5.59
  1122.200      1.54
  1121.687      6.70
  1121.172      2.72
  1120.658      5.65
  1120.145      4.64
  1119.632      3.13
  1119.118      4.76
  1118.607      6.14
  1118.094      6.14
  1117.582      6.22
  1117.072      4.35
  1116.561      6.40
  1116.049      4.61
  1115.540      1.59
  1115.030      7.69
  1114.520      7.94
  1114.011      7.72
  1113.502      6.79
  1112.993      9.63
  1112.485     11.51
  1111.978      8.52
  1111.469      8.84
  1110.963      7.82
  1110.456      7.19
  1109.949      5.64
  1109.443      7.27
  1108.937      5.81
  1108.431      6.54
  1107.927      5.02
  1107.422      6.03
  1106.917      5.67
  1106.414      4.99
  1105.910      4.75
  1105.406      3.62
  1104.904      7.59
  1104.401      5.62
  1103.898      7.21
  1103.397      6.84
  1102.895      6.28
  1102.393      8.12
  1101.893      3.79
  1101.392      5.71
  1100.891      4.88
  1100.392      8.03
  1099.892      7.86
  1099.393      8.98
  1098.894      7.17
  1098.395      5.85
  1097.897      3.80
  1097.400      5.15
  1096.902      3.78
  1096.404      6.11
  1095.908      5.07
  1095.411      5.06
  1094.915      4.67
  1094.419      5.53
  1093.924      7.79
  1093.428      5.32
  1092.934      2.67
  1092.439      5.54
  1091.944      4.61
  1091.451      4.65
  1090.957      4.98
  1090.464      6.34
  1089.972      3.97
  1089.479      7.29
  1088.986      6.11
  1088.495      4.31
  1088.004      8.32
  1087.512      6.08
  1087.022     18.15
  1086.531     20.08
  1086.040     34.05
  1085.551     32.04
  1085.061     21.86
  1084.572     16.92
  1084.083      9.33
  1083.595      6.41
  1083.106      7.32
  1082.619      4.01
  1082.131      4.05
  1081.643      6.72
  1081.157      5.66
  1080.671      5.21
  1080.184      5.74
  1079.698      6.43
  1079.213      4.70
  1078.727      7.07
  1078.243      5.11
  1077.758      2.33
  1077.273      6.38
  1076.790      5.28
  1076.306     10.13
  1075.823     10.41
  1075.340     19.99
  1074.857     28.49
  1074.375     39.53
  1073.893     29.33
  1073.411     22.63
  1072.929     12.90
  1072.449      9.15
  1071.968      8.92
  1071.488      6.21
  1071.008      6.51
  1070.528      6.09
  1070.048      5.69
  1069.570      3.43
  1069.091      3.65
  1068.612      4.39
  1068.134      3.13
  1067.656      0.80
  1067.179      2.97
  1066.702      4.74
  1066.225      4.06
  1065.748      5.15
  1065.273      5.10
  1064.796      6.95
  1064.321      7.78
  1063.845      6.72
  1063.371      5.06
  1062.896      4.14
  1062.421      6.08
  1061.948      6.43
  1061.474      7.83
  1061.000      7.08
  1060.528     14.93
  1060.055     16.17
  1059.582     17.32
  1059.111     11.73
  1058.639      7.24
  1058.167      7.55
  1057.697      5.04
  1057.225      4.94
  1056.754      6.07
  1056.285      7.25
  1055.815      2.52
  1055.345      8.14
  1054.876      4.94
  1054.407      6.43
  1053.938      7.25
  1053.470      6.93
  1053.002      4.90
  1052.534      4.45
  1052.067      5.72
  1051.600      9.00
  1051.133      6.62
  1050.667      5.64
  1050.201      6.39
  1049.735      9.98
  1049.270      6.63
  1048.804     10.55
  1048.339      7.94
  1047.875      4.84
  1047.410      5.18
  1046.946      5.72
  1046.483      4.96
  1046.020      5.95
  1045.556      4.46
  1045.094      5.78
  1044.631      8.08
  1044.169     15.12
  1043.708     27.18
  1043.246     39.73
  1042.784     54.83
  1042.324     41.01
  1041.863     38.59
  1041.403     21.11
  1040.943     10.50
  1040.484      6.66
  1040.024      4.98
  1039.565      4.97
  1039.106      4.28
  1038.647      4.36
  1038.190      6.35
  1037.732      6.86
  1037.274      5.92
  1036.817      9.48
  1036.360      9.64
  1035.903     11.24
  1035.448      9.34
  1034.991      6.60
  1034.535      5.66
  1034.080      7.42
  1033.625      5.14
  1033.169      5.18
  1032.716      5.02
  1032.261      2.32
  1031.807      4.66
  1031.354      4.17
  1030.900      4.45
  1030.447      5.03
  1029.995      4.04
  1029.542      5.06
  1029.090      5.15
  1028.639      3.21
  1028.187      4.10
  1027.735      5.37
  1027.285      4.28
  1026.833      3.93
  1026.383      3.68
  1025.934      2.74
  1025.483      3.62
  1025.033      3.99
  1024.585      6.28
  1024.136      4.75
  1023.687      7.26
  1023.240      5.68
  1022.791      3.52
  1022.343      5.16
  1021.896      2.61
  1021.449      5.95
  1021.002      4.10
  1020.556      3.90
  1020.109      3.46
  1019.663      5.25
  1019.218      6.90
  1018.772      7.43
  1018.327      4.33
  1017.883      6.39
  1017.438      4.42
  1016.994      4.36
  1016.550      3.96
  1016.106      3.71
  1015.663      3.99
  1015.220      5.21
  1014.777      2.56
  1014.334      6.01
  1013.893      3.95
  1013.451      5.78
  1013.009      4.18
  1012.568      5.10
  1012.127      3.25
  1011.686      5.44
  1011.246      3.90
  1010.806      4.32
  1010.366      6.45
  1009.927      4.65
  1009.487      3.19
  1009.048      3.04
  1008.610      5.73
  1008.171      4.66
  1007.732      3.92
  1007.295      5.91
  1006.857      5.70
  1006.420      5.08
  1005.983      7.15
  1005.547      4.07
  1005.110      4.90
  1004.674      4.84
  1004.238      4.58
  1003.802      6.05
  1003.368      4.42
  1002.932      4.80
  1002.497      5.14
  1002.063      5.80
  1001.629      8.33
  1001.195      6.46
  1000.762      5.36
  1000.328      6.44
   999.895     12.92
   999.463     13.71
   999.030     16.47
   998.597     18.62
   998.166     29.88
   997.734     30.58
   997.302     30.81
   996.872     23.53
   996.441     13.78
   996.010      5.26
   995.581      5.71
   995.150      5.14
   994.720      5.64
   994.292      4.42
   993.862      6.57
   993.433      4.40
   993.005      4.94
   992.576      4.04
   992.148      3.50
   991.721      4.02
   991.293      6.84
   990.866      5.98
   990.439      3.99
   990.012      7.13
   989.586      4.32
   989.160      5.78
   988.734      4.20
   988.308      2.99
   987.884      6.12
   987.458      6.86
   987.034      6.05
   986.610      2.11
   986.185      5.61
   985.761      4.09
   985.338      4.03
   984.914      8.19
   984.491      5.84
   984.069      3.66
   983.646      6.51
   983.224      4.99
   982.802      7.47
   982.380      7.19
   981.958     10.18
   981.538      8.00
   981.116      5.04
   980.696      8.04
   980.276     10.08
   979.856      8.25
   979.436     15.71
   979.017     19.96
   978.597     30.31
   978.178     44.38
   977.760     43.60
   977.341     32.27
   976.922     18.59
   976.505      9.45
   976.087      7.54
   975.669      5.96
   975.253      6.33
   974.835      4.86
   974.419      6.74
   974.003      4.13
   973.586      3.83
   973.170      3.77
   972.756      3.42
   972.340      5.68
   971.925      3.35
   971.511      3.59
   971.096      4.32
   970.681      5.23
   970.268      6.32
   969.854      4.85
   969.440      2.91
   969.028      4.63
   968.615      4.57
   968.202      5.12
   967.790      2.83
   967.378      5.10
   966.966      5.83
   966.555      5.76
   966.143      4.51
   965.732      4.50
   965.322      4.49
   964.911      5.78
   964.500      4.33
   964.091      6.56
   963.681      6.12
   963.271      2.21
   962.863      3.50
   962.453      5.15
   962.045      6.84
   961.636      6.51
   961.228      3.86
   960.820      4.91
   960.413      3.10
   960.005      4.43
   959.598      4.27
   959.191      5.28
   958.785      8.23
   958.378      6.76
   957.972     11.96
   957.566     16.55
   957.161     24.37
   956.756     29.35
   956.351     28.64
   955.946     22.04
   955.541     18.88
   955.137     12.69
   954.732      6.52
   954.329      5.65
   953.925      3.69
   953.522      5.74
   953.119      4.94
   952.716      5.35
   952.314      7.35
   951.911      6.08
   951.510      7.45
   951.108      8.29
   950.706      6.65
   950.305      5.93
   949.904      8.85
   949.503     12.83
   949.103     23.38
   948.703     33.98
   948.303     52.74
   947.904     56.36
   947.504     48.34
   947.104     31.15
   946.706     16.28
   946.307     10.66
   945.908      7.77
   945.510      4.42
   945.112      4.92
   944.715      3.84
   944.318      7.45
   943.920      3.28
   943.522      4.22
   943.126      4.82
   942.730      3.40
   942.333      5.97
   941.938      2.08
   941.542      5.26
   941.146      6.16
   940.752      5.08
   940.356      6.36
   939.962      5.28
   939.568      1.88
   939.174      4.79
   938.779      5.35
   938.386      7.83
   937.992      9.23
   937.599      3.09
   937.206      5.96
   936.813      5.52
   936.421      5.57
   936.029      5.93
   935.637      3.99
   935.245      4.65
   934.854      2.54
   934.463      5.95
   934.071      3.85
   933.681      4.71
   933.290      2.70
   932.900      2.35
   932.510      5.59
   932.120      5.95
   931.730      7.33
   931.341      5.83
   930.952      7.26
   930.563      3.32
   930.176      6.24
   929.787      4.89
   929.398      3.45
   929.011      4.50
   928.624      7.37
   928.236      3.97
   927.849      4.43
   927.462      5.10
   927.075      4.31
   926.689      4.50
   926.303      6.53
   925.917      7.31
   925.532      3.76
   925.146      6.67
   924.761      7.23
   924.376      6.99
   923.992      8.43
   923.607     11.28
   923.223      8.47
   922.839     13.08
   922.455      8.57
   922.072      6.71
   921.689      8.32
   921.306      6.20
   920.923      3.96
   920.540      5.10
   920.158      5.14
   919.776      5.35
   919.394      5.71
   919.012      3.77
   918.632      5.64
   918.250      2.31
   917.869      8.34
   917.489      7.29
   917.108      6.54
   916.728      2.76
   916.349      7.15
   915.969      7.83
   915.589      6.23
   915.210      8.58
   914.831     12.00
   914.452     13.16
   914.074     13.36
   913.696     14.36
   913.317     11.83
   912.940      7.06
   912.562      7.23
   912.185     10.36
   911.808      9.73
   911.431      8.07
   911.054      9.46
   910.678     10.71
   910.302      6.66
   909.926      7.57
   909.551      4.95
   909.175      5.80
   908.799      5.74
   908.425      4.77
   908.050      3.01
   907.675      3.46
   907.301      2.95
   906.927      3.59
   906.553      4.10
   906.180      5.19
   905.806      2.03
   905.433      3.91
   905.060      5.33
   904.687      4.68
   904.315      5.58
   903.943      5.74
   903.571      2.96
   903.199      4.38
   902.828      3.80
   902.456      4.21
   902.085      3.48
   901.715      5.09
   901.344      4.34
   900.973      6.28
   900.604      4.27
   900.233      4.79
   899.863      4.67
   899.494      3.88
   899.125      8.14
   898.756      9.10
   898.387      9.03
   898.019      8.78
   897.650      8.95
   897.282      8.04
   896.914      5.46
   896.546      3.86
   896.179      5.12
   895.812      6.27
   895.445      6.94
   895.078      6.76
   894.712      5.19
   894.345      5.35
   893.980      2.69
   893.613      7.07
   893.248     10.48
   892.883     14.57
   892.517     20.12
   892.152     27.08
   891.788     27.53
   891.423     20.36
   891.059     11.89
   890.695      8.84
   890.331      5.09
   889.967      5.46
   889.604      8.09
   889.241      5.12
   888.877      8.19
   888.516      5.05
   888.153      5.20
   887.790      7.39
   887.429      5.62
   887.066      4.48
   886.705      6.79
   886.344      6.84
   885.982      6.20
   885.621      5.97
   885.261      3.75
   884.900      6.46
   884.540      3.94
   884.180      3.83
   883.820      4.56
   883.460      6.77
   883.101      4.54
   882.742      7.09
   882.382      4.90
   882.024      4.20
   881.665      2.70
   881.307      9.87
   880.949      5.80
   880.591      5.51
   880.233      5.01
   879.876      3.78
   879.519      3.82
   879.161      3.97
   878.805      5.58
   878.448      5.63
   878.092      3.95
   877.736      5.12
   877.380      4.35
   877.024      7.19
   876.669      5.98
   876.314      7.71
   875.958      7.88
   875.604      7.51
   875.249     15.26
   874.894     11.56
   874.541     13.01
   874.186     13.65
   873.832      5.85
   873.479      7.10
   873.125      6.06
   872.772      7.14
   872.420      6.62
   872.067      2.62
   871.714      5.02
   871.362      7.64
   871.010      3.94
   870.658      4.78
   870.307      6.62
   869.955      3.54
   869.604      5.75
   869.253      8.87
   868.902      5.40
   868.552      6.52
   868.201      3.24
   867.851      5.59
   867.501      2.97
   867.152      7.60
   866.802      4.91
   866.452      5.01
   866.104      5.89
   865.755      5.77
   865.406      9.41
   865.058      8.96
   864.709     13.12
   864.361     27.43
   864.014     26.16
   863.666     34.39
   863.318     30.36
   862.971     18.53
   862.624     16.43
   862.277     13.64
   861.931     14.68
   861.585     15.29
   861.238     25.29
   860.892     25.95
   860.547     27.67
   860.201     18.11
   859.855     12.85
   859.511     11.37
   859.166     10.82
   858.821      7.28
   858.477      4.70
   858.133      7.43
   857.788      6.08
   857.445      6.53
   857.101      6.99
   856.757      8.69
   856.414      7.22
   856.071      9.56
   855.728     12.38
   855.386     16.80
   855.043     30.36
   854.700     43.45
   854.359     54.40
   854.017     74.27
   853.675     66.64
   853.334     49.73
   852.993     26.86
   852.652     18.34
   852.311     11.05
   851.970      8.44
   851.630      5.53
   851.291      7.51
   850.950      5.57
   850.610      6.31
   850.271      6.30
   849.931      4.55
   849.592      5.26
   849.253      4.86
   848.914      5.86
   848.576      7.80
   848.238      4.23
   847.900      6.94
   847.561      7.11
   847.224      3.67
   846.886      9.07
   846.549      4.79
   846.212      3.81
   845.875      4.23
   845.538      6.35
   845.202      5.83
   844.865      8.82
   844.529      4.09
   844.194      4.35
   843.857      4.67
   843.521      3.21
   843.187      4.71
   842.852      5.03
   842.516      4.04
   842.182      4.85
   841.847      2.71
   841.513      3.43
   841.179      5.84
   840.845      5.72
   840.511      4.04
   840.178      8.20
   839.844      2.97
   839.511      5.40
   839.178      5.33
   838.846      5.84
   838.513      7.48
   838.181      6.05
   837.849      7.71
   837.516     10.67
   837.185     16.64
   836.853     20.82
   836.522     25.91
   836.191     25.67
   835.860     18.76
   835.529     13.98
   835.198     12.28
   834.868      7.88
   834.538      6.31
   834.208      3.94
   833.878      6.23
   833.549      2.97
   833.219      3.54
   832.890      2.59
   832.561      5.68
   832.233      5.61
   831.904      3.24
   831.575      8.86
   831.247      8.22
   830.919     13.33
   830.591     18.35
   830.264     15.64
   829.936     19.13
   829.609     15.78
   829.282     10.99
   828.955      6.28
   828.628      4.02
   828.302      8.02
   827.975      5.00
   827.649      2.30
   827.323      6.72
   826.998      6.12
   826.672      2.43
   826.347      3.80
   826.022      7.53
   825.697      4.05
   825.373      2.97
   825.047      2.81
   824.723      2.80
   824.399      5.99
   824.075      6.46
   823.751      5.12
   823.428      3.67
   823.104      3.23
   822.781      5.55
   822.458      5.48
   822.135      4.23
   821.812      6.16
   821.490      5.40
   821.168      4.71
   820.845      8.33
   820.524      6.72
   820.202      7.02
   819.881     10.75
   819.559     15.18
   819.238     11.21
   818.917     16.39
   818.597     14.06
   818.115      8.55
   817.475      7.77
   816.835      5.25
   816.196      6.64
   815.559      7.94
   814.920      6.43
   814.284      5.56
   813.649      4.77
   813.013      5.52
   812.379      4.29
   811.746      6.37
   811.112      6.60
   810.480      3.77
   809.849      6.66
   809.218      6.16
   808.588      6.20
   807.959      5.08
   807.330      5.49
   806.703      5.98
   806.075      4.02
   805.449      4.19
   804.823      4.37
   804.199      4.90
   803.574      3.76
   802.951      3.80
   802.329      6.31
   801.706      5.55
   801.085      5.01
   800.465      7.51
   799.845      4.22
   799.226      5.43
   798.608      4.38
   797.990      6.83
   797.373      6.78
   796.757      3.07
   796.141      5.64
   795.526     10.57
   794.913     14.78
   794.299     11.93
   793.687      6.68
   793.075      7.41
   792.463      6.77
   791.853      7.34
   791.244      9.74
   790.634     15.14
   790.026     29.10
   789.418     24.37
   788.811     14.61
   788.205      7.88
   787.599      5.59
   786.994      6.29
   786.390      7.89
   785.787      8.72
   785.184      8.74
   784.582      7.24
   783.980     13.25
   783.379     20.13
   782.779     18.27
   782.180      9.93
   781.581      6.08
   780.983      5.62
   780.386      6.45
   779.789      5.32
   779.194      6.72
   778.598      7.33
   778.004      7.54
   777.410      6.22
   776.817      6.94
   776.224      6.61
   775.632      6.59
   775.041     11.43
   774.450     27.38
   773.861     37.92
   773.272     33.20
   772.683     13.32
   772.096      9.14
   771.509      4.48
   770.922      4.50
   770.336      6.64
   769.751      6.90
   769.166      9.03
   768.583      7.60
   768.000      7.07
   767.417      6.87
   766.835      4.59
   766.255      5.67
   765.674      4.67
   765.094      5.76
   764.515      3.06
   763.936      3.37
   763.358      6.07
   762.781      3.51
   762.204      3.61
   761.629      2.92
   761.053      4.35
   760.479      5.60
   759.905      6.28
   759.332      3.45
   758.759      4.54
   758.187      4.67
   757.616      2.76
   757.045      4.53
   756.475      5.40
   755.906      4.38
   755.336      3.28
   754.769      3.35
   754.201      5.76
   753.634      4.26
   753.068      5.45
   752.503      9.13
   751.937      7.29
   751.373      4.84
   750.810      3.98
   750.247      3.67
   749.684      4.88
   749.123      5.44
   748.562      5.21
   748.001      3.33
   747.441      4.32
   746.881      4.57
   746.323      5.39
   745.765      3.47
   745.208      3.68
   744.651      3.04
   744.094      4.78
   743.539      4.42
   742.984      3.67
   742.430      4.24
   741.876      4.05
   741.324      5.49
   740.771      4.57
   740.219      5.09
   739.668      4.34
   739.117      4.17
   738.568      6.22
   738.019      5.64
   737.469      6.15
   736.922      7.35
   736.374      4.93
   735.827      4.17
   735.281      7.24
   734.736     12.02
   734.190     22.35
   733.646     20.39
   733.102     12.90
   732.559      8.46
   732.016      4.71
   731.475      6.64
   730.933      8.65
   730.392      6.49
   729.852      5.16
   729.312      6.74
   728.773     11.12
   728.235     10.55
   727.697      5.26
   727.160      6.17
   726.623      3.13
   726.087      4.28
   725.552      4.35
   725.017      5.45
   724.482      6.19
   723.949      5.21
   723.416      4.61
   722.883      3.37
   722.351      3.06
   721.820      4.66
   721.289      6.16
   720.759      5.24
   720.229      7.49
   719.700     10.67
   719.172      8.23
   718.644      7.11
   718.117      5.97
   717.590      4.51
   717.064      5.32
   716.538      4.33
   716.014      5.97
   715.490      4.09
   714.965      4.98
   714.443      5.74
   713.920      8.80
   713.398      7.42
   712.876      6.33
   712.356      4.45
   711.835      6.75
   711.315      5.37
   710.797      2.87
   710.277      3.58
   709.760      5.26
   709.242      5.87
   708.725      8.72
   708.209     10.80
   707.693     13.83
   707.178     10.96
   706.663      9.18
   706.149      5.40
   705.635      5.01
   705.122      7.05
   704.610      7.03
   704.098      7.99
   703.587      5.86
   703.076      5.44
   702.565      4.34
   702.056      3.43
   701.547      4.01
   701.038      5.63
   700.530      5.02
   700.023      4.60
   699.516      6.29
   699.010      3.99
   698.504      7.05
   697.999      5.28
   697.494      4.71
   696.990      4.63
   696.486      5.12
   695.983      5.60
   695.481      7.70
   694.979     11.04
   694.478     12.68
   693.977      9.88
   693.476      5.53
   692.977      6.06
   692.478      3.95
   691.978      4.88
   691.480      7.03
   690.983      5.36
   690.486      3.59
   689.989      4.79
   689.493      3.20
   688.997      4.95
   688.503      7.86
   688.008      4.95
   687.514      3.47
   687.021      2.96
   686.528      4.72
   686.035      3.79
   685.544      5.07
   685.053      4.31
   684.562      7.09
   684.072      5.02
   683.582      8.62
   683.093      9.58
   682.604      9.82
   682.116      5.92
   681.628      4.42
   681.142      5.57
   680.655      6.67
   680.169      3.58
   679.684      4.95
   679.198      3.70
   678.714      3.12
   678.230      4.25
   677.746      6.11
   677.264      5.39
   676.782      7.32
   676.299      6.97
   675.818      9.76
   675.338      9.63
   674.857     11.30
   674.377     17.80
   673.898     20.72
   673.419     19.07
   672.941     11.63
   672.463      7.16
   671.986      5.61
   671.509      6.19
   671.033      7.49
   670.557      4.39
   670.082      4.22
   669.608      5.34
   669.133      5.23
   668.659      3.84
   668.187      5.17
   667.713      7.32
   667.241      5.99
   666.770      3.17
   666.299      5.43
   665.828      4.75
   665.358      3.98
   664.888      4.56
   664.418      2.59
   663.950      6.75
   663.482      3.16
   663.014      3.94
   662.547      3.55
   662.080      6.69
   661.614      5.09
   661.148      7.39
   660.683      9.88
   660.218      8.71
   659.754      6.18
   659.290      6.03
   658.827      6.80
   658.364      3.06
   657.901      3.96
   657.440      6.48
   656.978      7.19
   656.517      6.93
   656.057      6.60
   655.597     11.30
   655.137     18.91
   654.679     21.82
   654.220     17.66
   653.762     12.26
   653.305     10.21
   652.848      6.91
   652.391      5.98
   651.935      5.47
   651.480      7.15
   651.024      2.77
   650.570      6.33
   650.116      5.71
   649.662      6.71
   649.209      4.73
   648.757      6.37
   648.304      3.82
   647.853      5.08
   647.401      7.86
   646.950      9.46
   646.500     13.33
   646.050      9.93
   645.600      6.41
   645.152      6.53
   644.703      8.94
   644.255     12.48
   643.808     13.11
   643.361     15.64
   642.913      7.79
   642.468      7.13
   642.022      5.58
   641.576      4.07
   641.132      5.19
   640.688      4.56
   640.244      3.90
   639.800      4.78
   639.358      3.78
   638.915      4.05
   638.473      4.29
   638.032      4.89
   637.590      5.60
   637.150      2.66
   636.710      5.74
   636.270      5.03
   635.831      4.46
   635.392      3.91
   634.954      5.32
   634.516      5.81
   634.079      4.28
   633.641      4.71
   633.205      4.90
   632.769      3.95
   632.333      3.65
   631.898      4.30
   631.463      4.94
   631.029      3.48
   630.595      4.91
   630.162      6.00
   629.729      4.56
   629.296      6.53
   628.864      3.76
   628.432      3.71
   628.002      5.22
   627.571      4.32
   627.140      4.54
   626.710      4.95
   626.281      7.49
   625.852      8.39
   625.424      7.35
   624.996      8.73
   624.568     10.82
   624.141      7.56
   623.714      7.87
   623.288      5.50
   622.862      7.09
   622.436      4.09
   622.011      5.90
   621.587      6.30
   621.163      7.50
   620.739      9.66
   620.316     15.12
   619.893     27.61
   619.470     33.44
   619.049     33.00
   618.627     19.56
   618.206     12.61
   617.785      8.23
   617.365      7.84
   616.945      5.90
   616.526      8.94
   616.106      6.02
   615.688      8.30
   615.270     10.06
   614.852     16.37
   614.435     39.54
   614.018     61.42
   613.602     77.65
   613.186     67.67
   612.770     33.16
   612.355     14.14
   611.940      6.68
   611.526      5.04
   611.112      5.50
   610.698      4.65
   610.286      5.13
   609.873      5.91
   609.461      7.31
   609.049      6.33
   608.637      7.11
   608.227      5.51
   607.816      3.73
   607.406      4.30
   606.996      3.06
   606.587      4.28
   606.178      5.89
   605.770      3.47
   605.362      3.07
   604.954      3.76
   604.546      4.57
   604.140      5.06
   603.733      4.24
   603.328      4.10
   602.922      5.64
   602.517      6.46
   602.112      9.17
   601.708      6.40
   601.304      7.25
   600.900      5.46
   600.497      6.54
   600.094      5.99
   599.692      4.91
   599.290      4.86
   598.888      3.91
   598.487      3.19
   598.087      3.95
   597.686      3.94
   597.287      5.89
   596.887      5.05
   596.488      5.21
   596.089      6.28
   595.691      5.80
   595.292      5.58
   594.895      5.56
   594.498      5.76
   594.101      3.65
   593.705      5.25
   593.309      7.83
   592.914     10.95
   592.518      9.27
   592.124      8.20
   591.729      7.51
   591.335      5.48
   590.942      5.67
   590.549      5.31
   590.156      5.68
   589.764      7.89
   589.372     13.58
   588.980     18.67
   588.589     22.31
   588.198     15.78
   587.807     11.40
   587.418      8.30
   587.028      4.30
   586.638      3.72
   586.250      5.51
   585.861      7.53
   585.473      4.92
   585.085      4.40
   584.698      5.70
   584.311      5.26
   583.925      8.52
   583.538      8.59
   583.152      9.48
   582.767      7.75
   582.382      7.48
   581.997      7.92
   581.613      8.09
   581.229      9.18
   580.846     14.15
   580.463     18.56
   580.080     18.00
   579.698     14.48
   579.316     10.96
   578.934      6.94
   578.552      6.08
   578.172      5.19
   577.791      6.46
   577.411      5.37
   577.031      4.52
   576.652      5.91
   576.273      5.79
   575.895      6.03
   575.516      5.72
   575.138      4.94
   574.761      4.41
   574.383      5.83
   574.007      5.99
   573.631      7.39
   573.255     13.39
   572.879     27.36
   572.503     42.75
   572.128     58.05
   571.754     58.45
   571.379     46.73
   571.006     30.51
   570.633     16.84
   570.259      9.75
   569.886      6.24
   569.514      6.67
   569.142      5.53
   568.771      5.73
   568.400      6.45
   568.028      6.99
   567.658      4.70
   567.288      5.89
   566.918      5.34
   566.549      1.47
   566.180      5.18
   565.811      5.23
   565.443      5.47
   565.075      4.82
   564.707      6.91
   564.339      5.11
   563.973      4.74
   563.606      3.97
   563.240      5.64
   562.874      6.06
   562.509      5.01
   562.143      6.85
   561.778      4.77
   561.414      4.10
   561.050      5.52
   560.686      7.71
   560.323      3.89
   559.960      6.47
   559.597      4.72
   559.235      3.98
   558.873      5.08
   558.512      6.90
   558.150      4.25
   557.789      4.69
   557.429      4.47
   557.068      5.13
   556.708      4.55
   556.349      3.88
   555.990      4.38
   555.632      4.90
   555.273      7.43
   554.915      6.50
   554.557      6.31
   554.200      3.12
   553.842      4.90
   553.485      5.60
   553.129      5.52
   552.773      5.50
   552.418      8.11
   552.062      5.08
   551.707      7.49
   551.353      8.87
   550.998      7.31
   550.644      6.42
   550.291      6.94
   549.938      3.54
   549.584      4.60
   549.232      3.51
   548.880      5.07
   548.527      7.33
   548.176     12.61
   547.825     15.37
   547.473     19.92
   547.123     14.14
   546.773     11.33
   546.422      7.68
   546.073      5.29
   545.724      8.17
   545.375      5.81
   545.026      9.41
   544.678     11.38
   544.330     12.98
   543.982     16.62
   543.636      8.41
   543.288      6.37
   542.942      5.83
   542.596      3.88
   542.249      4.39
   541.904      4.88
   541.559      5.74
   541.214      3.14
   540.869      2.86
   540.525      5.30
   540.181      5.76
   539.837      5.09
   539.494      5.92
   539.151      5.95
   538.809      5.31
   538.466      5.22
   538.124      2.06
   537.783      6.05
   537.441      6.07
   537.100      5.09
   536.760      5.05
   536.419      4.10
   536.079      6.43
   535.739      4.04
   535.400      5.92
   535.061      6.47
   534.722      5.52
   534.384      4.06
   534.046      3.56
   533.708      7.23
   533.371      5.13
   533.033      5.16
   532.697      6.34
   532.360      6.06
   532.024      7.05
   531.688      5.77
   531.353      5.02
   531.017      6.46
   530.682      7.51
   530.348      6.40
   530.013      4.35
   529.679      5.77
   529.346      4.04
   529.012      4.10
   528.679      6.60
   528.346      5.16
   528.014      5.97
   527.682      7.87
   527.350      5.56
   527.019      7.01
   526.688      9.49
   526.357     16.49
   526.026     30.95
   525.697     34.90
   525.366     39.49
   525.037     24.06
   524.708     15.88
   524.378      7.30
   524.050      5.44
   523.721      5.76
   523.393      3.60
   523.066      5.89
   522.739      6.37
   522.411      8.40
   522.084      7.17
   521.758      4.21
   521.432      5.11
   521.106      7.69
   520.780      3.50
   520.455      4.45
   520.130      4.58
   519.805      4.17
   519.481      5.71
   519.157      7.37
   518.833      3.85
   518.510      5.59
   518.187      4.58
   517.864      7.20
   517.541      4.63
   517.219      6.15
   516.897      4.27
   516.575      6.24
   516.254      7.42
   515.933      8.30
   515.612     11.77
   515.292     14.76
   514.971     13.92
   514.651     11.22
   514.332      8.57
   514.013      7.53
   513.694      5.14
   513.375     10.04
   513.057      7.20
   512.739      9.44
   512.421      9.74
   512.104      6.30
   511.786      6.71
   511.469      8.88
   511.153      8.11
   510.836      6.28
   510.520      6.35
   510.205      5.72
   509.889      7.36
   509.574      6.59
   509.260      6.85
   508.945      4.03
   508.631      6.35
   508.317      7.34
   508.003      7.08
   507.690      7.31
   507.376      7.54
   507.063      6.21
   506.751      7.48
   506.439      8.67
   506.127     11.51
   505.815     11.55
   505.504     11.91
   505.193     10.42
   504.882     20.30
   504.572     37.13
   504.261     61.95
   503.952     85.18
   503.642     78.52
   503.333     56.87
   503.023     32.40
   502.715     13.06
   502.406      7.58
   502.098      7.08
   501.790      4.96
   501.482      5.48
   501.175      3.86
   500.868      4.96
   500.561      3.94
   500.255      3.39
   499.948      4.88
   499.642      7.72
   499.336      5.89
   499.031      6.83
   498.726      6.98
   498.421     11.28
   498.117     11.41
   497.813     10.61
   497.509     10.59
   497.205      8.63
   496.901      5.83
   496.598      4.33
   496.296      6.88
   495.993      3.80
   495.690      3.56
   495.389      7.54
   495.086      4.57
   494.785      3.60
   494.484      4.21
   494.183      5.29
   493.882      6.74
   493.582      4.92
   493.281      3.39
   492.982      6.10
   492.682      4.06
   492.383      4.38
   492.084      4.30
   491.785      4.58
   491.486      6.16
   491.188      3.82
   490.890      2.76
   490.593      4.99
   490.295      3.56
   489.998      5.59
   489.701      4.23
   489.404      4.60
   489.108      4.36
   488.812      3.94
   488.517      4.41
   488.220      3.65
   487.926      4.73
   487.631      5.02
   487.336      5.83
   487.041      5.42
   486.747      4.11
   486.453      6.47
   486.159      4.43
   485.866      5.41
   485.573      5.05
   485.280      6.30
   484.988      5.06
   484.695      4.40
   484.403      5.58
   484.112      4.57
   483.820      3.73
   483.529      5.16
   483.238      4.84
   482.947      4.21
   482.656      4.54
   482.366      3.67
   482.076      4.37
   481.786      7.01
   481.497      2.90
   481.208      6.98
   480.919      2.84
   480.630      6.02
   480.342      6.53
   480.053      4.32
   479.766      5.31
   479.478      5.14
   479.191      5.09
   478.904      6.15
   478.616      4.71
   478.330      5.84
   478.044      8.68
   477.758      9.70
   477.472     15.51
   477.187     13.36
   476.901     12.23
   476.616      9.06
   476.332      6.52
   476.047      4.65
   475.762      4.75
   475.478      7.36
   475.195      5.90
   474.911      3.57
   474.628      5.80
   474.345      6.35
   474.062      3.24
   473.780      3.83
   473.497      5.51
   473.216      4.91
   472.934      6.42
   472.652      5.16
   472.371      5.58
   472.090      5.85
   471.809      5.68
   471.528      5.62
   471.249      5.74
   470.968      5.80
   470.689      7.02
   470.409      7.99
   470.130     17.78
   469.851     19.83
   469.572     22.11
   469.293     23.61
   469.015     17.54
   468.738     12.16
   468.459      8.08
   468.182      7.00
   467.905      6.57
   467.627      6.60
   467.351      7.95
   467.075      4.30
   466.798      7.97
   466.522      8.04
   466.247      5.51
   465.971      5.42
   465.695      4.43
   465.420      5.28
   465.146      7.63
   464.871      6.98
   464.596      5.89
   464.322      5.11
   464.049      6.44
   463.775      6.84
   463.501      5.08
   463.229      3.18
   462.956      6.18
   462.683      6.71
   462.411      5.59
   462.138      5.45
   461.866      5.60
   461.595      4.13
   461.324      7.16
   461.052      6.06
   460.781      7.01
   460.511      6.66
   460.240      4.46
   459.970      4.68
   459.700      3.40
   459.430      7.08
   459.160      5.77
   458.891      5.27
   458.622      7.86
   458.354     10.75
   458.085     13.96
   457.816     11.51
   457.549     18.86
   457.281     27.71
   457.013     32.35
   456.745     40.02
   456.478     32.02
   456.211     24.09
   455.945     16.04
   455.678     10.73
   455.412      9.48
   455.146     17.01
   454.880     26.82
   454.615     36.21
   454.349     51.79
   454.084     53.37
   453.819     55.29
   453.554     37.09
   453.290     26.57
   453.026     13.03
   452.762     10.59
   452.498     10.15
   452.235      6.92
   451.971      4.17
   451.709      6.18
   451.446      5.30
   451.184      6.83
   450.921      4.00
   450.659      7.15
   450.397      5.38
   450.135      7.74
   449.874     12.00
   449.613     21.91
   449.352     32.43
   449.091     45.45
   448.831     54.90
   448.571     48.42
   448.310     34.38
   448.051     19.10
   447.791     10.31
   447.532      6.11
   447.273      9.61
   447.014      5.63
   446.755      6.42
   446.497      5.08
   446.238      5.76
   445.980      6.59
   445.723      2.44
   445.465      7.08
   445.208      7.78
   444.951      5.87
   444.694      5.28
   444.437      6.91
   444.181      6.13
   443.924      5.78
   443.668      6.70
   443.413      1.82
   443.157      5.45
   442.902      5.12
   442.647      4.06
   442.392      5.21
   442.137      3.41
   441.883      6.70
   441.628      5.88
   441.374      4.72
   441.121      8.63
   440.867      5.76
   440.614      7.56
   440.360      7.02
   440.107      4.78
   439.855      4.37
   439.602      1.11
   439.350      4.50
   439.098      3.94
   438.846      6.05
   438.594      6.94
   438.343      7.23
   438.092      6.83
   437.841      7.88
   437.590      8.69
   437.340      6.62
   437.089      8.53
   436.839      7.34
   436.589      4.54
   436.339      3.81
   436.090      4.60
   435.841      3.71
   435.592      2.13
   435.343      3.64
   435.094      5.50
   434.846      5.90
   434.598      3.42
   434.350      5.97
   434.102      5.49
   433.854      4.49
   433.607      5.72
   433.360      4.39
   433.113      5.36
   432.866      2.49
   432.620      2.22
   432.373      4.67
   432.127      5.77
   431.881      4.68
   431.636      3.99
   431.391      3.19
   431.145      4.57
   430.900      7.15
   430.655      4.38
   430.410      3.46
   430.166      8.48
   429.922      4.15
   429.678      3.89
   429.434      5.48
   429.191      6.15
   428.947      7.46
   428.704      7.67
   428.461      5.69
   428.219      6.36
   427.976      6.05
   427.734      2.82
   427.491      5.43
   427.250      4.83
   427.008      7.09
   426.766      4.93
   426.525      4.27
   426.284      4.18
   426.043      4.94
   425.802      5.35
   425.562      5.13
   425.321      4.91
   425.081      4.48
   424.842      7.40
   424.602      4.58
   424.362      7.15
   424.123      4.98
   423.884      7.22
   423.645      8.35
   423.406     16.34
   423.168     26.92
   422.930     31.25
   422.691     40.34
   422.454     41.03
   422.216     28.03
   421.979     21.34
   421.741     15.18
   421.504     10.63
   421.267     10.77
   421.031     10.70
   420.794      8.77
   420.558      6.21
   420.322      5.76
   420.086      8.84
   419.850      6.00
   419.615      5.60
   419.380      5.38
   419.145      4.49
   418.910      3.82
   418.675      5.60
   418.440      5.38
   418.206      5.19
   417.972      4.10
   417.738      4.25
   417.504      6.50
   417.271      4.98
   417.038      5.52
   416.805      4.33
   416.572      6.90
   416.339      7.90
   416.106      6.74
   415.874      6.69
   415.642      5.88
   415.410      5.96
   415.178      6.97
   414.947      5.38
   414.715      5.88
   414.484      6.62
   414.253      7.51
   414.023      7.69
   413.792      6.10
   413.562      9.78
   413.332      6.52
   413.102     12.19
   412.872     13.51
   412.642     25.13
   412.413     40.10
   412.183     67.15
   411.954     77.00
   411.726    119.09
   411.497     91.82
   411.268    113.33
   411.040     63.13
   410.812     30.24
   410.584     15.01
   410.356     13.78
   410.129      8.92
   409.901      4.74
   409.674      5.94
   409.447      4.98
   409.220      4.46
   408.994      4.70
   408.767      6.16
   408.541      4.55
   408.315      4.96
   408.089      6.17
   407.864      7.15
   407.638      5.01
   407.413      7.45
   407.188      4.32
   406.963      4.64
   406.738      6.06
   406.514      4.32
   406.290      8.96
   406.065      6.42
   405.841      6.01
   405.618      7.27
   405.394      5.86
   405.171      4.17
   404.947      8.03
   404.724      5.47
   404.501      6.98
   404.279      6.92
   404.056     10.98
   403.834      7.64
   403.612     13.36
   403.390     21.97
   403.168     29.69
   402.947     54.26
   402.725     73.59
   402.504     95.34
   402.283     81.55
   402.062     99.17
   401.841     66.81
   401.621     44.52
   401.400     23.51
   401.180     16.36
   400.960     10.51
   400.741      9.37
   400.521      6.23
   400.302      7.32
   400.083      6.16
   399.864      3.87
   399.645      3.86
   399.426      5.55
   399.208      5.06
   398.989      5.93
   398.771      5.65
   398.553      4.56
   398.335      2.93
   398.118      4.41
   397.900      5.48
   397.683      2.65
   397.466      4.25
   397.249      5.22
   397.032      5.17
   396.816      4.98
   396.599      2.36
   396.383      4.15
   396.167      4.14
   395.951      4.04
   395.736      4.80
   395.520      4.61
   395.305      3.63
   395.090      6.05
   394.875      3.12
   394.660      3.19
   394.445      5.52
   394.231      4.42
   394.017      4.88
   393.802      6.02
   393.589      3.51
   393.375      6.27
   393.161      4.97
   392.948      6.66
   392.735      3.80
   392.522      2.39
   392.309      4.54
   392.096      5.00
   391.884      5.70
   391.671      6.09
   391.459      5.10
   391.247      3.43
   391.035      5.75
   390.824      4.76
   390.612      2.94
   390.401      7.66
   390.190      4.95
   389.979      4.55
   389.768      4.93
   389.557      6.16
   389.347      5.39
   389.137      4.33
   388.927      5.32
   388.717      3.01
   388.507      4.82
   388.297      4.24
   388.088      4.02
   387.879      2.92
   387.669      4.64
   387.460      3.82
   387.252      3.39
   387.043      4.96
   386.835      3.20
   386.626      4.42
   386.418      5.15
   386.210      4.70
   386.003      3.03
   385.795      3.69
   385.588      3.97
   385.381      6.55
   385.174      4.73
   384.966      4.76
   384.760      6.33
   384.553      8.52
   384.347      9.63
   384.140     18.55
   383.935     17.30
   383.729     13.63
   383.523     15.71
   383.317     16.67
   383.112     14.08
   382.906     10.60
   382.702     13.58
   382.496     10.53
   382.292      5.60
   382.087      5.45
   381.883      5.90
   381.678      6.49
   381.474      6.62
   381.271      6.61
   381.067      6.04
   380.863      4.20
   380.660      2.92
   380.456      5.23
   380.253      4.65
   380.050      2.80
   379.847      4.67
   379.645      6.15
   379.442      5.00
   379.240      7.40
   379.038      7.63
   378.836      5.28
   378.634      6.94
   378.433      7.41
   378.231      3.89
   378.030      4.70
   377.828      5.36
   377.627      2.97
   377.427      4.71
   377.226      7.34
   377.025      5.27
   376.825      7.42
   376.625      4.23
   376.425      5.38
   376.225      4.56
   376.025      5.35
   375.825      4.67
   375.626      2.86
   375.427      4.30
   375.228      5.13
   375.029      4.85
   374.830      6.64
   374.631      6.53
   374.433      6.52
   374.235      4.06
   374.036      2.48
   373.838      4.88
   373.640      5.64
   373.443      5.03
   373.245      5.66
   373.048      5.01
   372.851      3.73
   372.654      3.46
   372.457      5.62
   372.260      5.11
   372.063      7.79
   371.867     13.15
   371.670     19.70
   371.474     27.85
   371.278     35.77
   371.083     34.87
   370.887     35.74
   370.692     26.28
   370.496     16.74
   370.301     13.00
   370.106      9.95
   369.911      7.48
   369.716      6.26
   369.522      6.58
   369.327      4.06
   369.133      3.57
   368.939      6.60
   368.745      4.20
   368.551      6.87
   368.357      6.38
   368.164      4.84
   367.970      6.50
   367.777      8.46
   367.584      4.14
   367.391      4.30
   367.198      5.84
   367.006      5.00
   366.813      4.76
   366.621      4.66
   366.429      9.90
   366.237      7.12
   366.045      6.39
   365.854      4.13
   365.662      5.90
   365.470      5.84
   365.279      5.22
   365.088      3.30
   364.897      5.02
   364.706      8.39
   364.516      7.52
   364.325      4.54
   364.135      5.90
   363.945      6.66
   363.755      7.33
   363.565      7.22
   363.375      9.25
   363.185     11.04
   362.996     20.55
   362.807     34.43
   362.617     46.72
   362.428     64.17
   362.240     64.17
   362.051     51.81
   361.862     40.56
   361.674     22.30
   361.486     17.37
   361.298      7.49
   361.110      8.04
   360.922      5.92
   360.734      5.16
   360.547      7.05
   360.359      3.48
   360.172      7.38
   359.985      4.48
   359.798      4.51
   359.611      5.23
   359.425      3.16
   359.238      4.57
   359.052      4.51
   358.865      4.28
   358.679      4.95
   358.493      4.17
   358.308      4.75
   358.122      3.79
   357.936      5.37
   357.751      3.29
   357.566      4.30
   357.381      4.92
   357.196      7.01
   357.011      7.55
   356.826      3.41
   356.642      2.71
   356.457      4.10
   356.273      6.03
   356.089      6.12
   355.905      5.77
   355.721      7.32
   355.538      7.31
   355.354      7.45
   355.171      8.68
   354.988      6.44
   354.805      7.32
   354.622     11.11
   354.439     16.39
   354.256     26.55
   354.074     30.13
   353.892     32.37
   353.709     30.76
   353.527     29.23
   353.345     21.05
   353.163     14.66
   352.982     11.41
   352.800     10.43
   352.619      8.11
   352.438      4.55
   352.256      5.42
   352.075      5.04
   351.895      4.66
   351.714      5.02
   351.533      6.15
   351.353      6.04
   351.173      5.84
   350.992      6.41
   350.813      5.39
   350.633      3.72
   350.453      6.87
   350.273      5.35
   350.094      5.58
   349.915      9.00
   349.735      6.53
   349.557      4.61
   349.377      6.56
   349.199      4.87
   349.020      3.58
   348.842      5.18
   348.663      6.22
   348.485      5.73
   348.307      6.20
   348.129      4.44
   347.951      4.38
   347.774      4.65
   347.596      4.22
   347.419      6.59
   347.241      4.76
   347.064      6.48
   346.888      4.60
   346.710      5.10
   346.534      4.35
   346.357      1.66
   346.181      5.12
   346.005      6.02
   345.828      7.20
   345.652      5.04
   345.477      4.10
   345.301      3.73
   345.125      6.71
   344.950      3.76
   344.774      6.14
   344.599      3.19
   344.424      7.53
   344.249      4.82
   344.074      5.42
   343.899      6.74
   343.725      7.18
   343.550      1.62
   343.376      4.44
   343.202      4.71
   343.028      3.24
   342.854      6.03
   342.680      7.22
   342.507      3.61
   342.333      4.80
   342.160      6.99
   341.986      4.73
   341.813      4.91
   341.640      3.60
   341.468      5.03
   341.295      3.67
   341.122      6.07
   340.950      6.36
   340.777      4.33
   340.605      5.56
   340.433      5.64
   340.261      7.43
   340.089     12.12
   339.918     13.98
   339.746     15.55
   339.575     18.25
   339.404     17.51
   339.232     12.43
   339.061      8.52
   338.890      9.55
   338.720      6.78
   338.549      5.05
   338.379      6.81
   338.208      5.51
   338.038      6.59
   337.868      6.28
   337.698      5.77
   337.528      5.81
   337.358      5.07
   337.188      4.17
   337.019      6.18
   336.850      7.02
   336.681      6.86
   336.511      5.12
   336.343      5.25
   336.174      5.20
   336.005      5.92
   335.836      6.86
   335.668      6.49
   335.499      5.35
   335.331      4.71
   335.163      4.61
   334.995      4.13
   334.827      6.39
   334.660      5.84
   334.492      4.90
   334.325      4.46
   334.157      5.02
   333.990      4.92
   333.823      6.13
   333.656      3.68
   333.489      5.18
   333.323      3.29
   333.156      4.21
   332.990      5.34
   332.823      4.85
   332.657      4.79
   332.491      3.89
   332.325      3.46
   332.159      6.13
   331.993      7.72
   331.828      3.85
   331.663      5.51
   331.497      5.99
   331.332      6.38
   331.167      4.09
   331.002      5.66
   330.837      4.92
   330.672      5.99
   330.508      4.85
   330.343      2.98
   330.179      6.82
   330.015      3.64
   329.851      4.43
   329.687      3.86
   329.523      6.37
   329.359      4.69
   329.196      3.41
   329.032      6.39
   328.869      4.85
   328.705      4.50
   328.542      4.93
   328.379      4.44
   328.216      5.54
   328.053      4.04
   327.891      4.65
   327.728      8.04
   327.566      4.92
   327.404      5.15
   327.241      4.94
   327.079      2.92
   326.917      4.49
   326.756      6.15
   326.594      5.05
   326.433      4.80
   326.271      7.42
   326.110      7.78
   325.948      8.75
   325.788      9.07
   325.626      8.95
   325.466      7.69
   325.305      8.05
   325.144      6.41
   324.984      3.85
   324.823      6.54
   324.663      4.78
   324.503      6.11
   324.343      5.01
   324.183      7.98
   324.023      5.58
   323.864      4.59
   323.704      5.96
   323.545      5.10
   323.385      5.74
   323.226      5.53
   323.067      5.13
   322.908      6.32
   322.750      2.38
   322.591      6.51
   322.432      5.48
   322.274      5.82
   322.115      4.77
   321.957      5.20
   321.799      5.00
   321.641      7.50
   321.483      4.30
   321.325      5.51
   321.168      6.21
   321.010      5.95
   320.853      8.10
   320.695      9.48
   320.538      8.91
   320.381     11.11
   320.224     16.91
   320.067     25.30
   319.910     35.51
   319.754     49.66
   319.597     55.59
   319.441     76.17
   319.285     59.99
   319.128     55.81
   318.972     40.57
   318.816     28.76
   318.661     18.48
   318.505     12.87
   318.349      8.82
   318.194      7.87
   318.038      6.27
   317.883      5.80
   317.728      5.09
   317.573      6.14
   317.418      7.50
   317.263      3.46
   317.109      5.10
   316.954      5.14
   316.800      4.58
   316.645      4.04
   316.491      3.55
   316.337      4.41
   316.183      3.87
   316.029      5.13
   315.875      4.63
   315.722      3.79
   315.568      5.50
   315.415      4.99
   315.261      4.00
   315.108      5.83
   314.955      3.13
   314.802      4.46
   314.649      3.25
   314.496      5.89
   314.344      5.78
   314.191      5.82
   314.039      5.20
   313.886      6.79
   313.734      6.36
   313.582      6.35
   313.430      5.06
   313.278      8.38
   313.126      5.44
   312.975      5.49
   312.823      4.58
   312.672      8.51
   312.520      4.17
   312.369      4.99
   312.218      6.16
   312.067      8.64
   311.916      4.57
   311.765      4.95
   311.615      4.79
   311.464      6.06
   311.313      4.23
   311.163      4.87
   311.013      4.51
   310.863      6.17
   310.713      5.04
   310.563      4.28
   310.413      6.88
   310.263      4.86
   310.114      5.30
   309.964      2.39
   309.815      4.04
   309.666      3.98
   309.516      7.09
   309.367      6.76
   309.219      4.44
   309.069      4.93
   308.921      3.84
   308.772      4.76
   308.624      5.31
   308.475      5.60
   308.327      6.75
   308.179      7.66
   308.031      6.30
   307.883      5.77
   307.735      5.35
   307.587      4.74
   307.439      5.69
   307.292      5.02
   307.145      5.06
   306.997      4.65
   306.850      4.19
   306.703      5.18
   306.556      3.93
   306.409      5.26
   306.262      7.04
   306.115      6.12
   305.969      5.96
   305.822      6.53
   305.676      1.84
   305.529      7.05
   305.383      6.93
   305.237      4.93
   305.091      5.33
   304.945      5.73
   304.799      6.20
   304.654      6.13
   304.508     10.19
   304.363      6.97
   304.218      8.29
   304.072      8.00
   303.927      7.88
   303.782      6.50
   303.637      9.29
   303.492      6.64
   303.348      6.53
   303.203      5.46
   303.058      6.40
   302.914      6.28
   302.770      7.41
   302.625      7.62
   302.481      7.34
   302.337      6.41
   302.193     10.15
   302.050      6.38
   301.906      4.46
   301.762      7.07
   301.619      5.36
   301.476      5.45
   301.332      5.65
   301.189      4.46
   301.046      7.08
   300.903      5.15
   300.760      6.08
   300.617      4.98
   300.475      5.49
   300.332      6.38
   300.190      7.57
   300.047      6.46
   299.905      7.44
   299.763      7.66
   299.621      5.12
   299.479      4.65
   299.337      4.54
   299.195      5.14
   299.053      6.50
   298.912      6.23
   298.771      4.15
   298.629      5.37
   298.488      6.96
   298.347      6.89
   298.206      6.99
   298.065      8.92
   297.924      8.04
   297.783      6.05
   297.643      7.51
   297.502     10.26
   297.361      6.94
   297.221      8.11
   297.081      5.57
   296.941      7.19
   296.801      7.34
   296.660      9.06
   296.521      7.10
   296.381      8.39
   296.241      9.38
   296.102      8.49
   295.962     13.95
   295.823     15.01
   295.684     18.88
   295.544     22.10
   295.405     28.22
   295.266     41.66
   295.127     58.00
   294.989     83.74
   294.850     78.90
   294.711     97.75
   294.573    115.33
   294.435    107.59
   294.296    164.28
   294.158    147.13
   294.020    136.36
   293.882    102.79
   293.744     84.25
   293.606     48.33
   293.469     32.74
   293.331     19.97
   293.193     13.41
   293.056     10.38
   292.918      8.15
   292.781      7.29
   292.644      7.22
   292.507      5.79
   292.370      3.47
   292.233      6.75
   292.097      4.82
   291.960      3.30
   291.823      6.34
   291.687      3.52
   291.551      6.21
   291.415      5.19
   291.278      5.34
   291.142      6.18
   291.006      4.33
   290.870      5.84
   290.735      7.94
   290.599      6.69
   290.463      7.19
   290.328      7.46
   290.192     11.00
   290.057     11.51
   289.922     12.36
   289.787     18.78
   289.652     28.00
   289.517     45.15
   289.382     52.80
   289.247     77.98
   289.112     93.11
   288.978    100.03
   288.8449999999.00
   288.709     90.97
   288.575     67.94
   288.440     48.51
   288.306     32.44
   288.172     22.76
   288.038     17.66
   287.905     11.82
   287.771      9.70
   287.637      6.76
   287.504      7.77
   287.370      7.65
   287.237      8.28
   287.104      7.40
   286.970      4.99
   286.838      6.87
   286.705      6.04
   286.572      5.92
   286.439      6.13
   286.306      4.11
   286.174      6.49
   286.041      2.35
   285.909      2.30
   285.776      4.64
   285.644      3.55
   285.512      5.84
   285.380      4.15
   285.248      4.81
   285.116      5.12
   284.984      4.69
   284.853      3.65
   284.721      2.60
   284.589      3.89
   284.458      4.96
   284.327      3.36
   284.195      3.86
   284.064      4.21
   283.933      5.52
   283.802      3.93
   283.671      2.82
   283.541      4.90
   283.410      6.41
   283.279      3.75
   283.149      8.94
   283.018      4.97
   282.888      4.54
   282.758      4.37
   282.628      7.72
   282.498      3.18
   282.368      5.46
   282.238      4.13
   282.108      6.65
   281.978      6.36
   281.849      3.69
   281.719      6.34
   281.590      6.39
   281.460      2.03
   281.331      5.39
   281.202      4.06
   281.073      4.10
   280.944      5.63
   280.815      3.42
   280.686      4.44
   280.557      5.55
   280.429      4.84
   280.300      3.84
   280.172      6.07
   280.043      3.26
   279.915      6.27
   279.787      3.75
   279.659      6.93
   279.531      6.92
   279.403      4.45
   279.275      3.92
   279.147      4.01
   279.020      4.32
   278.892      3.79
   278.764      7.62
   278.637      4.55
   278.510      5.45
   278.383      3.19
   278.255      4.26
   278.128      3.48
   278.001      5.58
   277.875      4.60
   277.748      4.38
   277.621      5.23
   277.494      4.21
   277.368      5.81
   277.241      3.42
   277.115      3.46
   276.989      4.80
   276.863      4.01
   276.737      7.82
   276.610      5.65
   276.484      5.09
   276.359      3.10
   276.233      4.59
   276.107      4.21
   275.982      2.23
   275.856      4.51
   275.731      4.29
   275.605      5.85
   275.480      3.80
   275.355      4.32
   275.230      3.89
   275.105      3.93
   274.980      5.25
   274.855      4.87
   274.731      3.34
   274.606      6.34
   274.481      6.95
   274.357      4.19
   274.232      4.66
   274.108      4.54
   273.984      6.86
   273.860      4.79
   273.736      3.83
   273.612      5.10
   273.488      3.97
   273.364      5.41
   273.240      4.43
   273.117      4.79
   272.993      8.57
   272.870      3.93
   272.746      4.55
   272.623      8.11
   272.500      6.75
   272.376      5.50
   272.253      6.05
   272.130      4.29
   272.008      4.23
   271.885      7.17
   271.762      5.29
   271.639      4.58
   271.517      3.57
   271.395      3.98
   271.272      4.93
   271.150      8.06
   271.028      5.57
   270.905      7.51
   270.783      6.00
   270.661      6.96
   270.540      8.88
   270.418      7.89
   270.296      8.73
   270.174      6.93
   270.053      4.62
   269.931      6.22
   269.810      5.87
   269.688      5.97
   269.567      4.80
   269.446      6.07
   269.325      4.78
   269.204      5.27
   269.083      4.02
   268.962      7.01
   268.842      5.35
   268.721      6.70
   268.600      6.12
   268.480      6.63
   268.359      4.07
   268.239      5.81
   268.119      6.14
   267.999      6.36
   267.879      7.70
   267.759      6.92
   267.639     11.73
   267.519     13.57
   267.399     17.81
   267.279     21.59
   267.160     30.00
   267.040     30.38
   266.921     31.98
   266.802     29.72
   266.682     24.49
   266.563     24.79
   266.444     18.51
   266.325     11.49
   266.206      8.92
   266.087     10.46
   265.968      5.08
   265.849      5.97
   265.730      6.83
   265.612      6.01
   265.494      9.18
   265.375      4.60
   265.257      6.33
   265.138      7.25
   265.021      6.02
   264.902      4.67
   264.784      2.81
   264.666      1.89
   264.548      4.70
   264.431      4.75
   264.313      3.77
   264.195      4.40
   264.078      6.18
   263.960      6.28
   263.843      5.99
   263.726      4.69
   263.608      5.57
   263.491      6.54
   263.374      4.01
   263.257      2.96
   263.140      2.28
   263.023      3.09
   262.907      6.84
   262.790      4.02
   262.673      3.59
   262.557      3.74
   262.440      9.66
   262.324      3.30
   262.208      5.35
   262.091      5.29
   261.975      2.81
   261.859      5.72
   261.743      4.70
   261.627      5.20
   261.511      6.04
   261.396      5.29
   261.280      6.49
   261.164      5.44
   261.049      3.31
   260.933      3.46
   260.818      6.98
   260.703      3.34
   260.587      3.27
   260.472      5.79
   260.357      6.12
   260.242      4.32
   260.127      4.09
   260.012      5.64
   259.898      4.29
   259.783      2.49
   259.668      7.98
   259.554      1.86
   259.439      6.11
   259.325      4.91
   259.211      5.75
   259.096      4.28
   258.982      6.96
   258.868      7.13
   258.754      4.98
   258.640      7.60
   258.526      5.81
   258.413      5.23
   258.299      4.17
   258.185      6.84
   258.072      7.01
   257.958      6.70
   257.845      6.22
   257.731      6.04
   257.618      3.36
   257.505      4.60
   257.392      4.70
   257.279      6.35
   257.166      5.65
   257.053      3.00
   256.940      5.17
   256.827      6.67
   256.715      5.27
   256.602      4.75
   256.490      4.03
   256.377      3.53
   256.265      4.73
   256.153      8.52
   256.040      4.21
   255.928      4.81
   255.816      7.07
   255.704      5.82
   255.592      4.79
   255.480      4.44
   255.369      5.16
   255.257      5.44
   255.145      7.63
   255.034      4.02
   254.922      4.79
   254.811      3.95
   254.699      5.22
   254.588      5.67
   254.477      5.72
   254.366      4.24
   254.255      5.71
   254.144      5.12
   254.033      6.39
   253.922      5.80
   253.811      4.37
   253.701      4.25
   253.590      5.54
   253.480      6.17
   253.369      7.12
   253.259      5.57
   253.148      7.84
   253.038      4.98
   252.928      4.52
   252.818      7.51
   252.708      5.52
   252.598      8.88
   252.488      8.87
   252.378      9.98
   252.268      8.40
   252.159     10.65
   252.049     10.03
   251.885      8.41
   251.666      9.59
   251.447     16.01
   251.229     28.15
   251.011     57.38
   250.794     77.24
   250.576    124.00
   250.359    166.71
   250.1429999999.00
   249.926    140.55
   249.710    198.27
   249.494     86.21
   249.278     44.96
   249.063     21.54
   248.847     12.37
   248.633     10.46
   248.418      7.19
   248.204      6.28
   247.990      6.24
   247.776      5.22
   247.563      5.44
   247.349      4.11
   247.136      3.92
   246.924      6.57
   246.711      4.56
   246.499      5.50
   246.288      6.19
   246.076      4.77
   245.865      4.01
   245.654      4.42
   245.443      4.71
   245.233      5.86
   245.022      6.18
   244.812      3.57
   244.603      3.63
   244.393      4.92
   244.184      4.70
   243.976      4.28
   243.767      5.95
   243.559      5.08
   243.351      5.24
   243.143      4.93
   242.935      4.48
   242.728      3.56
   242.521      4.02
   242.314      5.09
   242.108      5.94
   241.902      5.80
   241.696      7.92
   241.490      7.56
   241.285      7.73
   241.080      7.77
   240.875      3.94
   240.670      4.38
   240.466      5.86
   240.262      6.42
   240.058      4.70
   239.854      4.49
   239.651      5.64
   239.448      6.17
   239.245      7.24
   239.043      6.57
   238.841      6.21
   238.638      3.87
   238.437      6.02
   238.235      3.53
   238.034      4.74
   237.833      3.95
   237.632      3.93
   237.432      4.40
   237.231      5.62
   237.031      4.69
   236.832      5.50
   236.632      6.83
   236.433      6.91
   236.234      7.21
   236.035      7.16
   235.837      7.24
   235.639      7.06
   235.441      6.39
   235.243      4.22
   235.045      6.60
   234.848      6.43
   234.651      9.15
   234.455     10.53
   234.258      9.49
   234.062      7.41
   233.866      6.72
   233.670      4.96
   233.475      5.39
   233.279      5.74
   233.084      6.56
   232.890      8.52
   232.695      5.45
   232.501      5.86
   232.307      5.23
   232.113      6.19
   231.919      5.11
   231.726      4.24
   231.533      5.47
   231.340      4.67
   231.148      6.17
   230.955      4.49
   230.763      5.04
   230.571      5.45
   230.380      6.52
   230.188      4.99
   229.997      4.50
   229.806      6.24
   229.616      7.35
   229.425      5.10
   229.235      6.48
   229.045      5.96
   228.855      8.81
   228.666     12.13
   228.477     17.39
   228.288     18.59
   228.099     17.92
   227.910     15.13
   227.722     10.99
   227.534     12.84
   227.346     15.04
   227.158     21.19
   226.971     27.13
   226.784     31.30
   226.597     22.20
   226.410     17.07
   226.224     12.81
   226.037      9.54
   225.852      9.17
   225.666      8.36
   225.480     10.79
   225.295      8.67
   225.110     12.24
   224.925     17.25
   224.740     26.53
   224.556     51.98
   224.372     73.80
   224.188     99.08
   224.004    143.47
   223.821    126.05
   223.637     91.16
   223.454     56.89
   223.271     31.77
   223.089     15.46
   222.907     11.00
   222.724      8.27
   222.542      5.48
   222.361      7.19
   222.179      6.23
   221.998      4.39
   221.817      6.20
   221.636      5.90
   221.456      4.19
   221.275      3.55
   221.095      5.38
   220.915      5.52
   220.735      2.84
   220.556      3.29
   220.377      3.39
   220.198      4.71
   220.019      5.13
   219.840      4.05
   219.662      7.65
   219.484      6.35
   219.305      3.20
   219.128      4.77
   218.950      5.82
   218.773      4.74
   218.596      5.69
   218.419      5.61
   218.242      6.20
   218.066      5.61
   217.889      4.60
   217.713      5.29
   217.538      5.03
   217.362      3.56
   217.187      4.84
   217.012      4.64
   216.837      5.18
   216.662      4.92
   216.487      6.14
   216.313      3.28
   216.139      5.18
   215.965      4.55
   215.791      3.53
   215.618      3.02
   215.444      5.18
   215.271      4.48
   215.098      3.62
   214.926      5.29
   214.753      5.62
   214.581      4.54
   214.409      6.37
   214.237      6.52
   214.066      5.62
   213.894      7.87
   213.723      7.44
   213.552      5.54
   213.381      5.40
   213.210      5.51
   213.040      5.82
   212.870      5.99
   212.700      6.08
   212.530      7.57
   212.361      6.44
   212.191      8.16
   212.022     10.78
   211.853     11.43
   211.684      7.22
   211.516      9.09
   211.347      5.62
   211.179      5.10
   211.011      4.92
   210.843      5.13
   210.676      4.92
   210.508      3.76
   210.341      6.25
   210.174      6.46
   210.008      4.80
   209.841      5.32
   209.675      5.69
   209.508      8.01
   209.343      6.65
   209.177      8.05
   209.011      6.02
   208.846      7.25
   208.681      4.86
   208.516      7.29
   208.351      5.12
   208.186      8.06
   208.022      7.66
   207.857      4.85
   207.693      8.51
   207.530      8.10
   207.366      9.43
   207.203      9.79
   207.039      7.84
   206.876     11.70
   206.713     13.76
   206.551     17.80
   206.388     36.00
   206.226     60.79
   206.064     89.33
   205.902     97.59
   205.740    112.79
   205.579    133.22
   205.4179999999.00
   205.256    105.94
   205.095     74.09
   204.935     39.43
   204.774     21.52
   204.614     11.19
   204.453      9.86
   204.293      8.65
   204.134      7.74
   203.974      7.69
   203.814      9.94
   203.655     13.63
   203.496     19.64
   203.337     22.00
   203.179     20.79
   203.020     17.05
   202.862     16.21
   202.704     10.41
   202.546      7.33
   202.388      8.61
   202.230      5.20
   202.073      4.35
   201.916      3.13
   201.759      7.86
   201.602      6.38
   201.445      5.29
   201.289      4.85
   201.132      4.35
   200.976      4.88
   200.820      4.20
   200.664      6.05
   200.509      4.91
   200.353      8.08
   200.198      4.61
   200.043      3.96
   199.888      3.98
   199.734      4.12
   199.579      6.14
   199.425      4.70
   199.271      6.18
   199.117      4.90
   198.963      5.31
   198.809      4.67
   198.656      4.46
   198.503      5.26
   198.350      6.29
   198.197      7.08
   198.044      4.05
   197.891      3.94
   197.739      4.44
   197.587      3.69
   197.435      6.30
   197.283      5.18
   197.131      5.66
   196.980      4.85
   196.828      3.17
   196.677      4.92
   196.526      4.28
   196.376      4.53
   196.225      7.09
   196.075      3.79
   195.924      5.81
   195.774      5.69
   195.624      5.07
   195.474      4.53
   195.325      4.84
   195.175      5.09
   195.026      4.42
   194.877      5.70
   194.729      3.47
   194.580      5.33
   194.431      5.25
   194.283      5.07
   194.135      6.04
   193.987      5.81
   193.839      4.86
   193.691      5.79
   193.544      5.46
   193.396      5.62
   193.249      7.25
   193.102      6.24
   192.955      6.26
   192.808      3.91
   192.662      8.10
   192.516      8.76
   192.369      9.28
   192.223      9.77
   192.077      8.19
   191.932      9.31
   191.786      7.17
   191.641      6.90
   191.496      5.70
   191.350      7.34
   191.206      4.56
   191.061      5.45
   190.916      6.72
   190.772      6.35
   190.628      6.48
   190.484      6.43
   190.340      5.17
   190.196      7.04
   190.052      5.61
   189.909      6.40
   189.766      5.07
   189.623      7.05
   189.480      4.68
   189.337      6.48
   189.195      6.50
   189.052      7.25
   188.910      6.40
   188.768      7.77
   188.626      4.99
   188.484      7.62
   188.342      7.31
   188.201     10.79
   188.060     10.49
   187.918     12.16
   187.777     15.71
   187.637     20.22
   187.496     34.56
   187.355     61.73
   187.215     84.87
   187.075    101.56
   186.935    110.95
   186.795    116.22
   186.655    113.33
   186.515    139.53
   186.376     94.16
   186.237     56.64
   186.098     30.27
   185.959     14.94
   185.820      9.84
   185.681      8.92
   185.543      8.67
   185.404      7.78
   185.266      6.88
   185.128      6.04
   184.990      7.29
   184.853      6.47
   184.715      6.78
   184.578      4.43
   184.440      5.16
   184.303      6.06
   184.166      5.41
   184.030      3.18
   183.893      4.49
   183.756      4.64
   183.620      5.45
   183.484      5.65
   183.348      4.16
   183.212      5.80
   183.076      2.63
   182.941      2.62
   182.805      3.67
   182.670      3.92
   182.535      5.83
   182.400      5.22
   182.265      4.08
   182.130      4.36
   181.996      4.73
   181.861      4.61
   181.727      4.90
   181.593      5.80
   181.459      4.87
   181.325      5.70
   181.192      5.65
   181.058      7.31
   180.925      4.34
   180.792      6.72
   180.659      4.34
   180.526      4.53
   180.393      3.61
   180.260      6.37
   180.128      5.74
   179.995      5.16
   179.863      5.32
   179.731      5.17
   179.599      5.97
   179.468      5.28
   179.336      6.12
   179.204      5.11
   179.073      6.75
   178.942      6.01
   178.811      7.93
   178.680      6.86
   178.550      8.65
   178.419     14.47
   178.288     21.87
   178.158     28.11
   178.028     37.50
   177.898     42.02
   177.768     36.42
   177.638     28.82
   177.509     21.77
   177.379     14.74
   177.250     10.12
   177.121      7.21
   176.992      7.01
   176.863      5.92
   176.734      6.75
   176.606      5.64
   176.477      4.88
   176.349      6.41
   176.221      4.12
   176.093      5.51
   175.965      4.72
   175.837      3.91
   175.709      5.90
   175.582      4.57
   175.454      4.45
   175.327      5.64
   175.200      6.62
   175.073      5.50
   174.946      7.27
   174.820      5.12
   174.693      5.64
   174.567      7.15
   174.441      5.36
   174.314      6.29
   174.189      7.53
   174.063      7.13
   173.937      6.28
   173.811      5.87
   173.686      7.35
   173.561      5.22
   173.436      5.46
   173.311      5.95
   173.186      5.54
   173.061      4.42
   172.936      5.66
   172.812      6.23
   172.688      4.87
   172.563      3.24
   172.439      2.66
   172.315      4.23
   172.191      2.66
   172.068      6.30
   171.944      6.02
   171.821      5.82
   171.698      5.74
   171.574      5.25
   171.451      4.87
   171.328      4.16
   171.206      3.52
   171.083      6.48
   170.961      4.89
   170.838      2.81
   170.716      3.74
   170.594      5.35
   170.472      4.91
   170.350      5.21
   170.228      2.87
   170.107      5.04
   169.985      6.28
   169.864      3.82
   169.743      4.50
   169.622      4.31
   169.501      6.45
   169.380      5.32
   169.260      6.42
   169.139      6.71
   169.019      5.43
   168.898      9.49
   168.778     10.94
   168.658     11.51
   168.538     20.37
   168.419     22.05
   168.299     27.40
   168.179     29.46
   168.060     30.90
   167.941     25.33
   167.822     22.23
   167.703     15.65
   167.584     11.20
   167.465      8.94
   167.346      7.99
   167.228      4.28
   167.109      6.78
   166.991      6.96
   166.873      7.61
   166.755      6.55
   166.637      8.56
   166.520      7.69
   166.402      6.01
   166.284      7.82
   166.167      7.41
   166.050      7.87
   165.933      7.38
   165.816     10.81
   165.699     11.42
   165.582     13.72
   165.465     19.98
   165.349     32.23
   165.233     47.43
   165.116     75.78
   165.000     79.64
   164.884     99.08
   164.768    122.28
   164.6539999999.00
   164.537     99.86
   164.421    113.61
   164.306    153.38
   164.191     71.78
   164.076     37.61
   163.960     24.53
   163.846     14.61
   163.731     14.24
   163.616      7.78
   163.502      9.73
   163.387      7.39
   163.273      6.28
   163.159      6.27
   163.044      7.35
   162.931      3.66
   162.817      6.53
   162.703      6.37
   162.589      7.98
   162.476      5.57
   162.363      5.90
   162.249      5.10
   162.136      6.53
   162.023      8.16
   161.910      7.53
   161.797      4.35
   161.685      5.55
   161.572      4.24
   161.460      7.04
   161.348      4.47
   161.235      6.38
   161.123      3.51
   161.011      4.07
   160.900      5.65
   160.788      2.60
   160.676      3.70
   160.565      7.01
   160.453      3.57
   160.342      3.20
   160.231      5.68
   160.120      5.55
   160.009      3.84
   159.898      5.94
   159.788      6.83
   159.677      4.45
   159.567      4.44
   159.456      4.68
   159.346      5.99
   159.236      4.88
   159.126      6.04
   159.016      3.79
   158.906      6.64
   158.797      6.04
   158.687      5.80
   158.578      8.95
   158.468      7.35
   158.359      3.35
   158.250      6.05
   158.141      5.50
   158.032      5.03
   157.924      4.49
   157.815      4.96
   157.706      3.88
   157.598      5.01
   157.490      5.26
   157.382      3.30
   157.274      7.98
   157.166      4.88
   157.058      5.90
   156.950      6.32
   156.842      5.45
   156.735      7.58
   156.627      4.26
   156.520      5.76
   156.413      6.09
   156.306      5.88
   156.199      6.58
   156.092      3.71
   155.985      6.59
   155.879      4.35
   155.772      6.45
   155.666      5.38
   155.559      4.27
   155.453      4.74
   155.347      5.53
   155.241      7.11
   155.135      6.37
   155.029      6.23
   154.924      7.19
   154.818      3.66
   154.713      3.43
   154.607      5.32
   154.502      3.48
   154.397      3.25
   154.292      4.75
   154.187      5.15
   154.082      6.35
   153.978      5.28
   153.873      6.08
   153.769      5.84
   153.664      5.55
   153.560      6.20
   153.456      5.25
   153.352      5.16
   153.248      5.22
   153.144      4.90
   153.040      5.62
   152.937      5.61
   152.833      4.52
   152.730      5.51
   152.626      4.19
   152.523      5.48
   152.420      5.12
   152.317      6.24
   152.214      6.23
   152.111      4.39
   152.009      7.98
   151.906      5.28
   151.804      7.58
   151.701      6.81
   151.599      9.06
   151.497      5.11
   151.395      6.69
   151.293      7.05
   151.191      4.84
   151.089      9.48
   150.987      8.98
   150.886     12.13
   150.784     19.34
   150.683     25.45
   150.582     38.96
   150.481     53.75
   150.380     60.26
   150.279     70.76
   150.178     61.78
   150.077     61.75
   149.977     44.81
   149.876     40.48
   149.775     23.89
   149.675     16.48
   149.575      8.65
   149.475      7.90
   149.375      9.52
   149.275      6.45
   149.175      5.16
   149.075      5.90
   148.976      8.58
   148.876      5.67
   148.777      6.55
   148.677      3.53
   148.578      4.08
   148.479      5.34
   148.380      3.60
   148.281      4.35
   148.182      3.43
   148.084      4.21
   147.985      6.99
   147.886      5.38
   147.788      6.55
   147.689      7.41
   147.591      6.93
   147.493      8.07
   147.395      7.24
   147.297      6.93
   147.199      6.50
   147.101      5.56
   147.004      6.35
   146.906      6.84
   146.809      3.69
   146.711      5.67
   146.614      3.37
   146.517      4.50
   146.420      4.79
   146.323      5.65
   146.226      4.27
   146.129      6.99
   146.033      4.78
   145.936      4.15
   145.839      4.91
   145.743      7.28
   145.647      7.13
   145.550      6.62
   145.454      5.02
   145.358      6.34
   145.262      7.38
   145.167      7.67
   145.071      5.56
   144.975      4.60
   144.880      5.22
   144.784      5.81
   144.689      4.17
   144.594      7.29
   144.498      6.31
   144.403      4.84
   144.308      9.29
   144.213      8.28
   144.119      6.30
   144.024      9.21
   143.929      6.02
   143.835      5.89
   143.740      6.33
   143.646      4.34
   143.552      3.63
   143.458      4.39
   143.364      3.76
   143.270      4.76
   143.176      3.85
   143.082      6.07
   142.988      5.32
   142.895      4.59
   142.801      6.96
   142.708      5.65
   142.615      7.10
   142.521      4.90
   142.428      6.90
   142.335      5.27
   142.242      5.83
   142.149      3.83
   142.057      0.57
   141.964      5.59
   141.871      6.15
   141.779      5.20
   141.686      5.22
   141.594      3.83
   141.502      4.71
   141.410      4.50
   141.318      3.10
   141.226      4.20
   141.134      6.56
   141.042      3.56
   140.950      6.11
   140.859      3.88
   140.767      4.93
   140.676      5.94
   140.584      4.55
   140.493      3.75
   140.402      1.79
   140.311      4.91
   140.220      6.26
   140.129      3.32
   140.038      6.74
   139.948      6.09
   139.857      7.41
   139.766      3.57
   139.676      3.21
   139.586      6.64
   139.495      7.27
   139.405      5.31
   139.315      3.59
   139.225      2.81
   139.135      4.19
   139.045      7.21
   138.956      4.80
   138.866      4.47
   138.776      4.61
   138.687      4.01
   138.597      3.49
   138.508      5.27
   138.419      5.34
   138.330      8.22
   138.241      5.69
   138.152      7.92
   138.063      5.45
   137.974      3.52
   137.885      5.55
   137.797      3.10
   137.708      6.93
   137.620      4.65
   137.531      5.05
   137.443      4.47
   137.355      5.35
   137.267      4.16
   137.179      6.16
   137.091      6.67
   137.003      4.32
   136.915      5.58
   136.827      3.86
   136.740      8.59
   136.652      2.49
   136.565      5.44
   136.477      5.02
   136.390      3.84
   136.303      5.83
   136.216      6.11
   136.129      7.10
   136.042      5.12
   135.955      5.32
   135.868      7.10
   135.782      6.05
   135.695      7.35
   135.608      5.43
   135.522      5.42
   135.436      4.62
   135.349      4.04
   135.263      4.15
   135.177      4.10
   135.091      5.11
   135.005      8.66
   134.919      5.50
   134.833      4.86
   134.748      7.12
   134.662      7.92
   134.577      5.66
   134.491      7.94
   134.406      7.43
   134.320      9.75
   134.235     11.29
   134.150      9.88
   134.065     13.45
   133.980     10.59
   133.895     11.71
   133.810     14.31
   133.726     12.58
   133.641     12.51
   133.556     17.15
   133.472     17.26
   133.387     31.18
   133.303     38.48
   133.219     51.25
   133.135     58.45
   133.051     77.04
   132.967     87.96
   132.883     91.62
   132.799     82.79
   132.715     97.67
   132.631     62.46
   132.548     44.21
   132.464     31.54
   132.381     20.78
   132.297     14.89
   132.214     11.93
   132.131      9.28
   132.048      7.71
   131.965      8.63
   131.882      9.88
   131.799      4.63
   131.716      7.66
   131.633      4.51
   131.551      7.45
   131.468      6.41
   131.385      4.65
   131.303      4.22
   131.221      9.05
   131.138      3.79
   131.056      7.38
   130.974      6.69
   130.892      5.33
   130.810      5.79
   130.728      1.33
   130.646      4.29
   130.565      4.03
   130.483      5.74
   130.401      3.96
   130.320      4.86
   130.238      4.89
   130.157      5.73
   130.076      4.83
   129.995      4.65
   129.913      3.85
   129.832      5.64
   129.751      4.28
   129.670      5.92
   129.590      4.09
   129.509      5.76
   129.428      5.02
   129.348      3.77
   129.267      4.95
   129.187      5.07
   129.106      4.80
   129.026      5.13
   128.946      4.36
   128.866      5.49
   128.786      4.01
   128.705      6.22
   128.626      5.37
   128.546      7.05
   128.466      6.90
   128.386      3.82
   128.307      4.68
   128.227      5.48
   128.148      5.04
   128.068      4.56
   127.989      6.96
   127.910      5.22
   127.830      6.93
   127.751      6.56
   127.672      4.84
   127.593      6.81
   127.514      6.89
   127.436      5.93
   127.357      7.14
   127.278      7.50
   127.199      5.41
   127.121      7.56
   127.042      6.90
   126.964      6.48
   126.886      7.43
   126.808      7.89
   126.729      9.94
   126.651      9.57
   126.573     12.24
   126.495     17.90
   126.417     21.05
   126.340     28.42
   126.262     42.87
   126.184     51.05
   126.107     63.97
   126.029     80.63
   125.952     83.53
   125.874     73.16
   125.797     64.86
   125.720     56.08
   125.643     39.79
   125.566     31.19
   125.488     23.13
   125.412     16.69
   125.335     12.15
   125.258      8.76
   125.181      6.39
   125.104      7.44
   125.028      7.71
   124.951      5.15
   124.875      5.75
   124.798      6.10
   124.722      5.55
   124.646      5.76
   124.570      4.92
   124.494      6.19
   124.418      5.55
   124.342      6.16
   124.266      9.55
   124.190      6.46
   124.114      6.54
   124.038      7.50
   123.963      4.35
   123.887      8.74
   123.812      8.14
   123.736      9.72
   123.661     11.99
   123.586     13.34
   123.511     13.44
   123.435     14.67
   123.360     15.58
   123.285     14.35
   123.210     11.81
   123.136     11.04
   123.061     12.00
   122.986     11.72
   122.911      9.03
   122.837      8.23
   122.762      6.79
   122.688      4.66
   122.613      5.53
   122.539      5.88
   122.465      6.50
   122.391      5.67
   122.316      5.53
   122.242      4.59
   122.168      6.27
   122.095      7.24
   122.021      4.95
   121.947      4.50
   121.873      5.37
   121.800      4.01
   121.726      4.86
   121.652      6.23
   121.579      4.75
   121.506      5.44
   121.432      3.95
   121.359      5.69
   121.286      4.92
   121.213      3.28
   121.140      3.94
   121.067      5.69
   120.994      5.00
   120.921      3.82
   120.848      4.11
   120.775      5.95
   120.703      7.40
   120.630      5.52
   120.558      3.68
   120.485      6.98
   120.413      6.36
   120.340      4.94
   120.268      4.80
   120.196      5.54
   120.124      5.17
   120.052      2.76
   119.980      5.55
   119.908      6.93
   119.836      2.69
   119.764      3.76
   119.692      4.79
   119.621      4.69
   119.549      3.60
   119.477      5.79
   119.406      6.15
   119.335      4.30
   119.263      5.75
   119.192      4.71
   119.121      4.83
   119.049      4.07
   118.978      4.50
   118.907      7.63
   118.836      5.41
   118.766      5.99
   118.695      7.45
   118.624      5.15
   118.553      4.12
   118.482      2.71
   118.412      4.94
   118.341      5.74
   118.271      3.56
   118.200      3.94
   118.130      3.84
   118.060      4.66
   117.990      5.50
   117.919      6.46
   117.849      4.31
   117.779      7.11
   117.709      3.38
   117.639      5.21
   117.570      1.99
   117.500      6.39
   117.430      6.01
   117.360      6.75
   117.291      5.25
   117.221      4.96
   117.152      5.13
   117.082      5.99
   117.013      5.15
   116.944      4.56
   116.875      4.95
   116.805      3.66
   116.736      6.93
   116.667      6.06
   116.598      6.05
   116.529      4.01
   116.460      4.97
   116.392      4.16
   116.323      5.82
   116.254      3.74
   116.186      6.50
   116.117      5.97
   116.049      6.05
   115.980      5.44
   115.912      4.17
   115.843      8.01
   115.775      5.13
   115.707      4.57
   115.639      6.08
   115.571      4.24
   115.503      5.73
   115.435      6.05
   115.367      8.23
   115.299      4.87
   115.231      6.06
   115.164      5.57
   115.096      3.98
   115.028      5.46
   114.961      5.40
   114.893      6.71
   114.826      5.06
   114.759      5.23
   114.691      7.36
   114.624     10.65
   114.557      6.03
   114.490      8.44
   114.423     10.39
   114.356     11.21
   114.289      8.10
   114.222      5.19
   114.155      7.47
   114.088      6.48
   114.022      4.69
   113.955      5.56
   113.888      5.59
   113.822      5.86
   113.755      7.20
   113.689      3.26
   113.623      4.76
   113.556      7.37
   113.490      5.76
   113.424      5.51
   113.358      4.99
   113.292      4.43
   113.226      4.97
   113.160      5.33
   113.094      7.24
   113.028      5.77
   112.962      5.39
   112.896      6.56
   112.831      5.64
   112.765      5.54
   112.700      4.83
   112.634      7.11
   112.569      6.27
   112.503      3.89
   112.438      6.34
   112.373      5.80
   112.308      5.74
   112.242      5.07
   112.177      4.74
   112.112      4.91
   112.047      3.20
   111.982      5.40
   111.917      5.11
   111.853      5.33
   111.788      3.59
   111.723      5.69
   111.658      5.72
   111.594      5.66
   111.529      4.13
   111.465      4.61
   111.401      5.49
   111.336      4.78
   111.272      6.57
   111.208      5.17
   111.143      3.39
   111.079      7.08
   111.015      8.04
   110.951      5.03
   110.887      7.50
   110.823      5.34
   110.759      4.63
   110.695      7.52
   110.632      8.80
   110.568      7.24
   110.504      6.63
   110.441      5.04
   110.377      5.78
   110.314      5.06
   110.250      4.63
   110.187      5.23
   110.124      5.79
   110.060      5.30
   109.997      6.05
   109.934      3.80
   109.871      4.02
   109.808      5.30
   109.745      2.67
   109.682      2.96
   109.619      3.12
   109.556      4.23
   109.494      7.71
   109.431      4.72
   109.368      4.57
   109.306      6.52
   109.243      6.41
   109.181      3.85
   109.118      4.76
   109.056      5.17
   108.993      6.22
   108.931      6.15
   108.869      3.52
   108.807      5.08
   108.744      5.06
   108.682      6.56
   108.620      4.81
   108.558      2.76
   108.497      5.64
   108.435      3.76
   108.373      5.38
   108.311      8.97
   108.249      7.74
   108.188      5.97
   108.126      5.05
   108.065      2.28
   108.003      6.53
   107.942      4.87
   107.880      4.12
   107.819      6.55
   107.758      4.93
   107.696      6.08
   107.635      2.90
   107.574      6.15
   107.513      7.87
   107.452      4.18
   107.391      5.25
   107.330      5.00
   107.269      4.80
   107.208      4.27
   107.148      6.63
   107.087      5.58
   107.026      4.66
   106.966      3.05
   106.905      3.89
   106.845      3.56
   106.784      3.28
   106.724      5.13
   106.663      3.99
   106.603      3.43
   106.543      6.82
   106.483      6.81
   106.422      4.69
   106.362      6.38
   106.302      5.87
   106.242      5.67
   106.182      8.21
   106.122      7.46
   106.063      4.20
   106.003      6.82
   105.943      5.03
   105.883      6.29
   105.824      5.88
   105.764      8.23
   105.705      4.56
   105.645      4.74
   105.586      6.95
   105.526      4.57
   105.467      4.90
   105.408      5.41
   105.348      7.79
   105.289      4.86
   105.230      3.96
   105.171      5.52
   105.112      6.20
   105.053      3.05
   104.994      6.28
   104.935      6.52
   104.876      6.51
   104.817      5.85
   104.759      4.38
   104.700      8.25
   104.641      6.52
   104.583      6.20
   104.524      7.47
   104.466     11.39
   104.407      8.20
   104.349      8.35
   104.290     17.46
   104.232     19.51
   104.174     21.30
   104.116     26.61
   104.058     31.28
   103.999     36.84
   103.941     42.82
   103.883     38.88
   103.825     39.49
   103.768     36.09
   103.710     35.52
   103.652     24.85
   103.594     21.86
   103.536     19.78
   103.479     13.57
   103.421     12.04
   103.363     14.61
   103.306     10.16
   103.248      7.29
   103.191      9.00
   103.134      6.03
   103.076      7.84
   103.019      6.26
   102.962      7.18
   102.905      6.65
   102.847      6.38
   102.790      6.16
   102.733      5.06
   102.676      5.05
   102.619      4.41
   102.562      4.83
   102.506      6.78
   102.449      5.70
   102.392      6.91
   102.335      3.32
   102.279      6.32
   102.222      8.43
   102.165      6.40
   102.109      6.14
   102.052      4.98
   101.996      3.35
   101.940      6.05
   101.883      4.46
   101.827      4.89
   101.771      7.64
   101.714      8.17
   101.658      4.51
   101.602      6.92
   101.546      7.38
   101.490      5.76
   101.434      7.36
   101.378      6.00
   101.322      6.45
   101.266      6.03
   101.211      9.93
   101.155      4.13
   101.099      5.49
   101.044      7.77
   100.988      7.71
   100.932      5.96
   100.877      7.46
   100.821      4.79
   100.766      7.88
   100.711      6.18
   100.655      7.26
   100.600      8.23
   100.545      7.94
   100.490      5.27
   100.435      6.59
   100.379      5.45
   100.324      6.46
   100.269      5.78
   100.214      5.57
   100.159      5.56
   100.105      2.94
   100.050      3.25
    99.995      5.57
    99.940      7.18
    99.886      7.06
    99.831      5.90
    99.776      3.86
    99.722      3.90
    99.667      4.91
    99.613      4.36
    99.558      6.26
    99.504      5.53
    99.450      7.51
    99.395      5.61
    99.341      6.42
    99.287     10.08
    99.233      6.25
    99.179      9.65
    99.124      8.55
    99.071      5.70
    99.016      6.15
    98.963      7.58
    98.909      4.71
    98.855      5.92
    98.801      6.21
    98.747      8.42
    98.694      5.98
    98.640      6.08
    98.586      2.83
    98.533      6.37
    98.479      6.89
    98.426      6.03
    98.372      7.29
    98.319      5.09
    98.265      3.95
    98.212      7.21
    98.159      5.88
    98.106      4.85
    98.052      4.49
    97.999      6.53
    97.946      6.15
    97.893      4.22
    97.840      6.39
    97.787      6.64
    97.734      3.56
    97.681      3.17
    97.628      6.56
    97.575      5.35
    97.523      7.18
    97.470      5.23
    97.417      9.06
    97.365      5.56
    97.312      7.30
    97.260      7.73
    97.207      3.74
    97.155      4.91
    97.102      6.40
    97.050      8.93
    96.997      4.83
    96.945      5.28
    96.893      4.76
    96.841      8.09
    96.789      7.97
    96.736      2.84
    96.684      6.21
    96.632      6.57
    96.580      5.82
    96.528      5.40
    96.476      6.06
    96.424      4.67
    96.373      6.52
    96.321      5.41
    96.269      5.71
    96.217      4.83
    96.166      4.02
    96.114      6.15
    96.063      6.89
    96.011      6.39
    95.960      3.98
    95.908      6.32
    95.857      5.11
    95.805      4.59
    95.754      4.78
    95.703      6.98
    95.651      6.53
    95.600      6.52
    95.549      7.16
    95.498      7.04
    95.447      8.49
    95.396      4.26
    95.345      7.12
    95.294      4.59
    95.243      6.61
    95.192      5.44
    95.141      7.69
    95.090      9.41
    95.039      8.98
    94.989      9.68
    94.938     16.45
    94.887     13.91
    94.837     17.98
    94.786     20.80
    94.736     34.05
    94.685     45.67
    94.635     57.52
    94.584     70.27
    94.534     69.33
    94.484     80.85
    94.434     79.51
    94.383     82.16
    94.333    102.69
    94.283     85.88
    94.233     85.08
    94.183     76.96
    94.133     72.53
    94.083     53.14
    94.033     34.58
    93.983     32.67
    93.933     24.04
    93.883     16.30
    93.833     13.76
    93.784     13.54
    93.734     13.46
    93.684      9.59
    93.635      8.57
    93.585     10.80
    93.535      7.52
    93.486     10.10
    93.436     12.38
    93.387     12.98
    93.338      9.64
    93.288     12.69
    93.239     11.81
    93.190     11.29
    93.140     13.40
    93.091     16.28
    93.042     14.64
    92.993     12.09
    92.944     14.13
    92.895     13.49
    92.846     12.12
    92.797     10.13
    92.748      7.92
    92.699     10.42
    92.650      7.17
    92.601      7.95
    92.552      9.41
    92.504      7.59
    92.455      8.44
    92.406      5.38
    92.358      8.13
    92.309      7.72
    92.261      8.16
    92.212      8.80
    92.164     10.87
    92.115     13.32
    92.067     14.72
    92.018     17.76
    91.970     18.98
    91.922     22.92
    91.873     31.65
    91.825     36.99
    91.777     35.77
    91.729     42.38
    91.681     49.47
    91.633     50.67
    91.585     51.40
    91.537     46.09
    91.489     38.66
    91.441     37.84
    91.393     26.89
    91.345     28.82
    91.297     19.86
    91.250     17.19
    91.202     20.19
    91.154     10.85
    91.107     12.35
    91.059     11.54
    91.011      7.84
    90.964      5.07
    90.916      7.25
    90.869      6.56
    90.822      4.63
    90.774      4.72
    90.727      5.29
    90.679      6.03
    90.632      2.77
    90.585      4.01
    90.538      6.60
    90.491      5.72
    90.444      5.39
    90.396      4.58
    90.349      2.32
    90.302      5.89
    90.255      6.27
    90.208      7.15
    90.162      7.08
    90.115      4.11
    90.068      7.29
    90.021      5.99
    89.974      6.43
    89.928      4.54
    89.881      3.96
    89.834      2.80
    89.788      6.55
    89.741      4.49
    89.695      6.76
    89.648      2.61
    89.602      7.31
    89.555      6.39
    89.509      7.23
    89.462      3.31
    89.416      4.37
    89.370      2.94
    89.324      3.53
    89.277      3.73
    89.231      4.70
    89.185      5.01
    89.139      3.44
    89.093      3.18
    89.047      6.17
    89.001      5.61
    88.955      8.93
    88.909      3.90
    88.863      5.04
    88.817      3.73
    88.771      4.70
    88.725      3.76
    88.680      5.87
    88.634      5.69
    88.588      6.97
    88.543      3.98
    88.497      4.85
    88.452      5.44
    88.406      7.50
    88.361      6.35
    88.315      4.08
    88.270      4.12
    88.224      6.27
    88.179      3.54
    88.133      3.94
    88.088      4.19
    88.043      6.73
    87.998      4.17
    87.953      5.60
    87.907      5.81
    87.862      5.58
    87.817      6.23
    87.772      5.72
    87.727      4.90
    87.682      6.31
    87.637      6.25
    87.592      4.50
    87.547      4.12
    87.502      4.95
    87.458      4.52
    87.413      7.28
    87.368      6.13
    87.323      7.09
    87.279      5.34
    87.234      8.31
    87.190      4.14
    87.145      5.69
    87.100      4.07
    87.056      5.29
    87.011      5.83
    86.967      3.78
    86.923      6.48
    86.878      5.58
    86.834      6.46
    86.790      2.18
    86.745      8.93
    86.701      4.83
    86.657      4.39
    86.613      6.35
    86.569      5.56
    86.525      7.37
    86.481      5.38
    86.437      8.86
    86.393      5.25
    86.349      7.87
    86.305      8.04
    86.261      4.89
    86.217     10.79
    86.173      8.07
    86.129      6.36
    86.085      6.87
    86.042      6.00
    85.998      5.66
    85.954      3.35
    85.911      5.64
    85.867      4.06
    85.824      6.63
    85.780      4.73
    85.737      6.67
    85.693      7.66
    85.650      6.42
    85.606      4.64
    85.563     10.31
    85.520      5.33
    85.476      5.10
    85.433      8.50
    85.390      6.77
    85.347      5.01
    85.303      6.17
    85.260      4.45
    85.217      8.39
    85.174      5.30
    85.131      6.76
    85.088      7.11
    85.045      7.04
    85.002      7.44
    84.959      6.67
    84.916      5.08
    84.874      5.01
    84.831      5.84
    84.788      7.09
    84.745      6.39
    84.703      8.03
    84.660      8.51
    84.617      6.02
    84.575      7.16
    84.532      6.39
    84.490      9.93
    84.447      6.84
    84.405     10.50
    84.362      6.53
    84.320      8.75
    84.277      5.21
    84.235      7.50
    84.193     10.78
    84.150      9.02
    84.108     11.24
    84.066     12.84
    84.024     13.77
    83.981     14.98
    83.939     18.06
    83.897     17.71
    83.855     20.45
    83.813     31.51
    83.771     36.35
    83.729     46.56
    83.687     66.47
    83.645     65.56
    83.603     98.49
    83.562     99.77
    83.520    104.27
    83.478    146.28
    83.436    104.17
    83.395    109.34
    83.353     95.79
    83.311    134.89
    83.2699999999.00
    83.2289999999.00
    83.186    130.63
    83.1459999999.00
    83.103    105.51
    83.062    117.78
    83.020    134.60
    82.979     94.38
    82.938     60.93
    82.896     55.52
    82.855     43.31
    82.814     32.78
    82.772     22.21
    82.731     19.90
    82.690     15.21
    82.649     13.44
    82.608     12.84
    82.567     13.87
    82.526     12.68
    82.484      6.97
    82.443     10.03
    82.402      4.49
    82.361      7.85
    82.321      7.78
    82.280      4.36
    82.239      8.50
    82.198      6.79
    82.157      6.83
    82.116      7.18
    82.076      7.84
    82.035      7.65
    81.994      7.34
    81.954      7.63
    81.913      5.38
    81.872      4.48
    81.832      8.66
    81.791      7.59
    81.751      5.34
    81.710      5.05
    81.670      5.78
    81.630      4.64
    81.589      7.30
    81.549      6.27
    81.509      8.27
    81.468      6.08
    81.428     12.06
    81.388     10.25
    81.348      9.70
    81.307     15.19
    81.267     17.58
    81.227     20.56
    81.187     25.07
    81.147     33.06
    81.107     37.61
    81.067     46.47
    81.027     48.12
    80.987     53.14
    80.947     55.83
    80.907     57.77
    80.868     62.53
    80.828     66.78
    80.788     58.43
    80.748     57.05
    80.708     57.05
    80.669     49.76
    80.629     38.87
    80.589     38.86
    80.550     27.46
    80.510     22.45
    80.471     17.73
    80.431     11.96
    80.392     13.49
    80.352      8.88
    80.313      7.85
    80.273      5.97
    80.234      6.37
    80.195     10.16
    80.155      6.53
    80.116      6.28
    80.077      4.60
    80.038      5.91
    79.998      7.28
    79.959      7.89
    79.920      3.57
    79.881      5.41
    79.842      3.55
    79.803      5.05
    79.764      4.19
    79.725      4.86
    79.686      5.71
    79.647      7.62
    79.608      4.77
    79.569      8.75
    79.530      8.23
    79.491      6.61
    79.453      4.01
    79.414      5.07
    79.375      7.69
    79.336      5.62
    79.298      7.05
    79.259      3.74
    79.220      8.60
    79.182      7.76
    79.143      6.40
    79.105      5.45
    79.066      5.91
    79.028      5.90
    78.989      3.89
    78.951      5.12
    78.912      5.23
    78.874      4.59
    78.836      4.47
    78.797      5.20
    78.759      4.68
    78.721      4.33
    78.683      5.12
    78.644      5.92
    78.606      7.12
    78.568      5.79
    78.530      5.84
    78.492      4.22
    78.454      5.35
    78.416      5.22
    78.378      7.25
    78.340      4.18
    78.302      5.78
    78.264      3.66
    78.226      5.52
    78.188      4.36
    78.150      7.13
    78.112      7.50
    78.075      4.28
    78.037      5.01
    77.999      3.49
    77.961      4.36
    77.924      4.02
    77.886      6.21
    77.848      6.20
    77.811      5.54
    77.773      5.00
    77.736      5.88
    77.698      4.30
    77.661      4.52
    77.623      4.22
    77.586      1.73
    77.548      4.15
    77.511      4.88
    77.474      5.22
    77.436      5.39
    77.399      3.83
    77.362      4.96
    77.324      5.41
    77.287      4.59
    77.250      3.57
    77.213      5.98
    77.176      3.66
    77.139      4.50
    77.101      3.26
    77.064      4.77
    77.027      5.94
    76.990      5.63
    76.953      3.72
    76.916      3.94
    76.880      5.01
    76.843      2.71
    76.806      6.42
    76.769      7.60
    76.732      6.84
    76.695      1.82
    76.658      5.72
    76.622      4.31
    76.585      4.08
    76.548      6.42
    76.512      3.89
    76.475      5.38
    76.438      2.82
    76.402      5.13
    76.365      3.41
    76.329      5.34
    76.292      6.91
    76.256      5.15
    76.219      6.77
    76.183      3.52
    76.146      7.00
    76.110      2.68
    76.074      4.46
    76.037      4.63
    76.001      6.16
    75.965      4.49
    75.929      2.85
    75.892      4.88
    75.856      4.64
    75.820      4.63
    75.784      4.50
    75.748      2.59
    75.712      3.80
    75.675      6.38
    75.640      6.87
    75.604      6.36
    75.567      4.27
    75.532      3.42
    75.496      4.95
    75.460      6.33
    75.424      5.41
    75.388      5.16
    75.352      4.45
    75.316      7.54
    75.280      5.43
    75.245      3.56
    75.209      5.53
    75.173      6.93
    75.138      4.34
    75.102      3.93
    75.066      3.97
    75.031      5.66
    74.995      3.95
    74.960      4.00
    74.924      5.22
    74.889      7.75
    74.853      3.86
    74.818      3.80
    74.782      5.24
    74.747      6.57
    74.711      5.76
    74.676      4.22
    74.641      7.11
    74.605      5.14
    74.570      3.56
    74.535      3.95
    74.500      5.05
    74.464      6.19
    74.429      4.44
    74.394      4.96
    74.359      4.54
    74.324      2.34
    74.289      5.41
    74.254      4.75
    74.219      5.76
    74.184      3.86
    74.149      4.60
    74.114      3.33
    74.079      4.41
    74.044      3.31
    74.009      4.68
    73.974      6.37
    73.939      4.73
    73.905      6.79
    73.870      4.88
    73.835      9.63
    73.800      3.93
    73.766      4.44
    73.731      4.20
    73.696      5.56
    73.662      5.85
    73.627      3.54
    73.592      4.51
    73.558      5.40
    73.523      6.50
    73.489      3.91
    73.454      4.95
    73.420      6.98
    73.385      5.97
    73.351      7.81
    73.317      3.23
    73.282      7.14
    73.248      6.24
    73.214      5.01
    73.179      6.48
    73.145      6.78
    73.111      5.16
    73.077      5.21
    73.042      5.32
    73.008      6.87
    72.974      6.55
    72.940      8.30
    72.906      4.75
    72.872     10.44
    72.838      5.15
    72.804      4.84
    72.770      6.56
    72.736      3.42
    72.702      5.54
    72.668      6.91
    72.634      6.39
    72.600      4.91
    72.566      2.20
    72.532      4.47
    72.498      5.42
    72.465      3.87
    72.431      5.71
    72.397      6.14
    72.363      4.07
    72.330      5.56
    72.296      4.29
    72.262      6.04
    72.229      5.60
    72.195      4.80
    72.162      5.70
    72.128      2.30
    72.094      4.71
    72.061      3.07
    72.027      3.00
    71.994      4.80
    71.961      4.85
    71.927      7.23
    71.894      6.64
    71.860      3.18
    71.827      5.37
    71.794      3.17
    71.760      4.38
    71.727      4.25
    71.694      5.89
    71.661      6.51
    71.627      6.69
    71.594      5.74
    71.561      6.80
    71.528      4.26
    71.495      7.37
    71.462      4.12
    71.429      4.47
    71.396      5.25
    71.362      6.69
    71.329      5.05
    71.296      8.26
    71.264      6.66
    71.231      5.33
    71.198      6.64
    71.165      6.44
    71.132      7.74
    71.099      7.00
    71.066      2.69
    71.033      3.13
    71.001      4.96
    70.968      6.77
    70.935      2.60
    70.903      7.34
    70.870      6.87
    70.837      5.22
    70.805      5.71
    70.772      7.51
    70.739      6.32
    70.707      4.88
    70.674      7.22
    70.642     10.04
    70.609      7.46
    70.577      7.32
    70.544     10.68
    70.512     11.27
    70.479     13.63
    70.447     12.57
    70.415     15.65
    70.382     14.69
    70.350     10.92
    70.318     15.71
    70.285     14.83
    70.253     16.87
    70.221     17.04
    70.189     14.89
    70.156     13.62
    70.124      9.33
    70.092      9.75
    70.060     12.38
    70.028     10.68
    69.996      9.72
    69.964     11.96
    69.932     13.64
    69.900     10.35
    69.868     10.86
    69.836      9.82
    69.804     11.68
    69.772     11.91
    69.740     17.56
    69.708     17.83
    69.676     17.35
    69.644     20.72
    69.613     20.29
    69.581     19.36
    69.549     24.04
    69.517     19.45
    69.486     25.71
    69.454     16.37
    69.422     19.52
    69.390     15.53
    69.359     18.90
    69.327     15.43
    69.296     12.97
    69.264     14.46
    69.232     13.61
    69.201     10.08
    69.169     11.50
    69.138      9.77
    69.106      5.36
    69.075      5.80
    69.044      8.39
    69.012      5.21
    68.981      5.51
    68.949      4.45
    68.918      5.43
    68.887      6.52
    68.855      5.61
    68.824      5.47
    68.793      6.62
    68.762      6.35
    68.730      4.57
    68.699      8.43
    68.668      4.99
    68.637      5.29
    68.606      6.90
    68.575      3.27
    68.544      9.67
    68.513      5.07
    68.481      5.76
    68.450      3.06
    68.419      4.85
    68.388      5.92
    68.357      2.85
    68.327      5.08
    68.296      5.51
    68.265      2.03
    68.234      5.05
    68.203      5.61
    68.172      5.16
    68.141      5.21
    68.111      1.37
    68.080      3.24
    68.049      7.42
    68.018      7.20
    67.988      4.92
    67.957      4.54
    67.926      3.92
    67.896      1.47
    67.865      2.66
    67.834      3.29
    67.804      9.24
    67.773      2.06
    67.743      5.10
    67.712      4.22
    67.682      6.77
    67.651      6.16
    67.621      1.96
    67.590      7.15
    67.560      3.04
    67.529      3.38
    67.499      3.38
    67.469      5.79
    67.438      1.79
    67.408      4.75
    67.378      4.06
    67.347      5.82
    67.317      4.05
    67.287      5.16
    67.257      2.89
    67.226      3.72
    67.196      4.07
    67.166      6.55
    67.136      5.89
    67.106      3.62
    67.076      5.03
    67.046      4.21
    67.016      5.98
    66.986      3.95
    66.956      5.19
    66.926      8.27
    66.896      5.17
    66.866      8.11
    66.836      5.15
    66.806      5.27
    66.776      7.80
    66.746      6.63
    66.716      7.23
    66.686      5.69
    66.657      4.04
    66.627      4.71
    66.597      4.96
    66.567      1.60
    66.538      6.44
    66.508      5.51
    66.478      2.32
    66.448      6.34
    66.419      4.53
    66.389      5.80
    66.360      6.79
    66.330      7.32
    66.300      2.67
    66.271      2.61
    66.241      4.73
    66.212      5.88
    66.182      5.61
    66.153      3.47
    66.123      7.96
    66.094      5.84
    66.064      3.99
    66.035      5.44
    66.006      5.10
    65.976      6.74
    65.947      8.62
    65.918      5.60
    65.888      5.98
    65.859      3.81
    65.830      2.83
    65.801      7.94
    65.771      6.21
    65.742      6.27
    65.713      3.64
    65.684      5.59
    65.655      4.87
    65.626      1.27
    65.596      2.12
    65.567      4.41
    65.538      2.22
    65.509      5.22
    65.480      5.08
    65.451      3.44
    65.422      4.55
    65.393      5.84
    65.364      2.28
    65.335      3.35
    65.306      7.23
    65.278      5.67
    65.249      4.50
    65.220      2.95
    65.191      6.64
    65.162      4.60
    65.133      8.02
    65.105      5.62
    65.076      8.65
    65.047      3.63
    65.018      8.63
    64.990      5.92
    64.961      5.57
    64.932      4.47
    64.904      5.89
    64.875      4.45
    64.846      3.82
    64.818      2.59
    64.789      8.49
    64.761      4.99
    64.732      5.05
    64.704      5.50
    64.675      5.16
    64.647      5.48
    64.618      6.61
    64.590      6.06
    64.561      4.93
    64.533      4.35
    64.505      6.92
    64.476      3.58
    64.448      3.57
    64.420      5.67
    64.391      4.31
    64.363      4.05
    64.335      6.66
    64.307      3.41
    64.278      5.24
    64.250      3.52
    64.222      7.89
    64.194      5.02
    64.166      7.02
    64.137      3.92
    64.109      8.07
    64.081      6.59
    64.053      4.65
    64.025      4.01
    63.997      9.21
    63.969      3.06
    63.941      8.38
    63.913      5.66
    63.885      3.53
    63.857      6.52
    63.829      5.04
    63.801      6.30
    63.773      3.13
    63.745      9.82
    63.717      8.68
    63.690      6.40
    63.662      5.31
    63.634      4.14
    63.606      3.69
    63.578      7.06
    63.551      5.28
    63.523      8.62
    63.495      8.98
    63.468      7.52
    63.440      6.67
    63.412      9.26
    63.385     11.45
    63.357     11.44
    63.329     13.19
    63.302     17.96
    63.274     15.70
    63.247     19.94
    63.219     24.89
    63.192     27.72
    63.164     32.30
    63.137     30.53
    63.109     34.53
    63.082     46.73
    63.054     45.40
    63.027     43.15
    62.999     37.50
    62.972     40.61
    62.945     49.81
    62.917     47.21
    62.890     48.62
    62.863     40.57
    62.835     39.27
    62.808     36.84
    62.781     40.54
    62.754     32.00
    62.726     26.18
    62.699     27.84
    62.672     21.55
    62.645     17.15
    62.618     18.25
    62.591     14.56
    62.564     11.60
    62.536      9.91
    62.509     11.42
    62.482     10.44
    62.455      5.81
    62.428     10.59
    62.401      6.55
    62.374      8.41
    62.347      7.17
    62.320      6.11
    62.293      7.58
    62.266      6.10
    62.240      5.01
    62.213      7.27
    62.186      5.19
    62.159      5.52
    62.132      6.26
    62.105      7.24
    62.079      5.63
    62.052      9.91
    62.025      8.38
    61.998      1.56
    61.972      3.95
    61.945      7.40
    61.918      6.26
    61.891      5.50
    61.865      5.22
    61.838      2.84
    61.812      2.95
    61.785      8.37
    61.758      4.99
    61.732      4.52
    61.705      5.92
    61.679      3.04
    61.652      5.63
    61.626      4.03
    61.599      5.89
    61.573      6.22
    61.546      4.20
    61.520      3.43
    61.493      6.20
    61.467      8.65
    61.441      5.90
    61.414      4.22
    61.388      5.14
    61.362      4.14
    61.335      4.20
    61.309      4.19
    61.283      4.38
    61.256      4.70
    61.230      4.69
    61.204      6.39
    61.178      5.48
    61.151      5.40
    61.125      4.13
    61.099      5.52
    61.073      5.93
    61.047      3.40
    61.021      5.57
    60.995      5.83
    60.969      3.06
    60.942      5.27
    60.917      5.81
    60.890      4.58
    60.864      6.63
    60.838      5.58
    60.812      5.91
    60.787      5.29
    60.761      4.94
    60.735      4.60
    60.709      6.86
    60.683      4.52
    60.657      7.21
    60.631      6.63
    60.605      2.02
    60.579      5.09
    60.554      1.05
    60.528      5.75
    60.502      5.54
    60.476      4.52
    60.451      5.52
    60.425      4.37
    60.399      7.49
    60.373      6.26
    60.348      6.25
    60.322      5.14
    60.296      3.10
    60.271      7.52
    60.245      3.15
    60.219      4.30
    60.194      7.13
    60.168      6.41
    60.143      4.34
    60.117      3.75
    60.092      5.34
    60.066      6.09
    60.041      3.21
    60.015      6.64
    59.990      3.77
    59.964      2.99
    59.939      5.35
    59.914      3.88
    59.888      5.61
    59.863      2.96
    59.837      6.16
    59.812      4.44
    59.787      5.58
    59.761      5.57
    59.736      4.21
    59.711      4.60
    59.686      3.93
    59.660      4.93
    59.635      3.66
    59.610      3.14
    59.585      5.38
    59.560      5.10
    59.534      5.43
    59.509      4.74
    59.484      6.33
    59.459      3.80
    59.434      4.65
    59.409      5.39
    59.384      7.60
    59.359      5.93
    59.334      6.35
    59.309      4.61
    59.284      5.91
    59.259      5.41
    59.234      4.12
    59.209      7.03
    59.184      6.80
    59.159      3.31
    59.134      4.15
    59.109      4.01
    59.084      3.87
    59.059      6.40
    59.034      4.12
    59.010      6.74
    58.985      1.93
    58.960      5.94
    58.935      0.29
    58.910      1.54
    58.886      5.43
    58.861      2.76
    58.836      4.05
    58.811      4.04
    58.787      5.81
    58.762      5.88
    58.737      2.79
    58.713      2.72
    58.688      3.81
    58.664      3.66
    58.639      6.19
    58.614      3.19
    58.590      4.71
    58.565      4.84
    58.541      5.94
    58.516      4.96
    58.492      3.61
    58.467      4.60
    58.443      5.70
    58.418      5.76
    58.394      4.17
    58.369      4.57
    58.345      3.23
    58.321      3.29
    58.296      6.22
    58.272      6.57
    58.248      5.15
    58.223      4.45
    58.199      3.06
    58.174      8.65
    58.150      2.15
    58.126      6.60
    58.102      2.90
    58.077      3.34
    58.053      4.60
    58.029      5.07
    58.005      5.27
    57.981      8.04
    57.956      5.19
    57.932      5.60
    57.908      4.62
    57.884      6.23
    57.860      3.73
    57.836      5.15
    57.812      4.59
    57.788      6.05
    57.764      4.17
    57.740      4.91
    57.716      4.63
    57.692      3.48
    57.668      5.37
    57.644      4.46
    57.620      4.18
    57.596      4.18
    57.572      4.92
    57.548      4.91
    57.524      3.35
    57.500      5.52
    57.476      4.82
    57.452      7.18
    57.428      6.22
    57.405      7.54
    57.381      2.59
    57.357      4.85
    57.333      4.91
    57.309      6.76
    57.286      1.86
    57.262      4.95
    57.238      3.59
    57.215      4.59
    57.191      6.57
    57.167      3.83
    57.143      6.49
    57.120      3.82
    57.096      3.28
    57.073      5.66
    57.049      2.80
    57.025      5.08
    57.002      5.43
    56.978      3.17
    56.955      6.20
    56.931      4.02
    56.908      1.00
    56.884      2.49
    56.861      4.20
    56.837      2.86
    56.814      2.66
    56.790      6.51
    56.767      7.63
    56.743      5.55
    56.720      3.88
    56.697      4.83
    56.673      5.32
    56.650      5.24
    56.627      4.81
    56.603      7.58
    56.580      4.31
    56.557      3.36
    56.533      6.80
    56.510      4.91
    56.487      4.07
    56.464      5.25
    56.429      4.92
    56.382      4.34
    56.336      5.20
    56.290      5.97
    56.243      4.89
    56.197      4.56
    56.151      6.15
    56.105      5.84
    56.059      4.68
    56.013      2.61
    55.967      3.65
    55.922      3.54
    55.876      5.72
    55.830      6.33
    55.784      5.01
    55.739      4.22
    55.693      5.55
    55.648      4.96
    55.602      2.73
    55.557      6.34
    55.512      5.67
    55.466      3.99
    55.421      6.90
    55.376      4.00
    55.331      4.50
    55.286      5.48
    55.241      5.65
    55.196      6.03
    55.151      5.72
    55.106      5.31
    55.061      5.44
    55.017      5.67
    54.972      4.03
    54.927      4.67
    54.883      3.72
    54.838      4.22
    54.794      4.03
    54.749      4.90
    54.705      3.42
    54.661      6.07
    54.616      4.49
    54.572      3.34
    54.528      5.72
    54.484      3.51
    54.440      7.08
    54.396      4.59
    54.352      2.16
    54.308      4.49
    54.264      2.39
    54.221      2.31
    54.177      5.38
    54.133      5.14
    54.090      5.35
    54.046      5.85
    54.003      5.32
    53.959      7.73
    53.916      5.18
    53.873      4.55
    53.829      5.95
    53.786      5.16
    53.743      5.51
    53.700      6.17
    53.657      5.34
    53.614      6.75
    53.571      5.23
    53.528      6.26
    53.485      4.98
    53.442      5.12
    53.399      4.45
    53.357      3.73
    53.314      5.77
    53.271      2.81
    53.229      5.15
    53.186      4.59
    53.144      5.82
    53.101      4.09
    53.059      4.04
    53.017      6.57
    52.974      4.65
    52.932      4.86
    52.890      5.21
    52.848      6.05
    52.806      5.81
    52.764      5.09
    52.722      5.22
    52.680      5.95
    52.638      5.33
    52.596      5.51
    52.555      5.38
    52.513      4.85
    52.471      5.46
    52.430      2.81
    52.388      6.11
    52.347      6.09
    52.305      3.27
    52.264      5.23
    52.222      6.98
    52.181      4.87
    52.140      6.83
    52.099      4.88
    52.057      6.56
    52.016      3.87
    51.975      7.20
    51.934      7.55
    51.893      4.58
    51.852      4.42
    51.811      3.20
    51.771      4.50
    51.730      3.69
    51.689      5.43
    51.648      3.35
    51.608      4.00
    51.567      6.11
    51.527      6.37
    51.486      4.43
    51.446      6.96
    51.405      4.47
    51.365      6.23
    51.325      4.48
    51.284      5.51
    51.244      6.45
    51.204      5.02
    51.164      2.47
    51.124      4.55
    51.084      7.84
    51.044      4.70
    51.004      4.50
    50.964      6.42
    50.924      5.64
    50.885      4.17
    50.845      4.00
    50.805      3.49
    50.765      5.23
    50.726      4.36
    50.686      7.11
    50.647      4.04
    50.607      4.46
    50.568      5.39
    50.529      6.62
    50.489      5.39
    50.450      4.74
    50.411      4.57
    50.372      1.90
    50.333      3.24
    50.293      5.20
    50.254      6.59
    50.215      5.48
    50.176      5.89
    50.137      6.46
    50.099      2.97
    50.060      5.80
    50.021      5.44
    49.982      5.81
    49.944      5.45
    49.905      4.08
    49.866      5.27
    49.828      3.33
    49.789      6.89
    49.751      4.35
    49.713      2.68
    49.674      4.66
    49.636      4.38
    49.598      5.43
    49.559      7.41
    49.521      5.60
    49.483      5.43
    49.445      8.68
    49.407      4.86
    49.369      5.42
    49.331      4.79
    49.293      4.47
    49.255      3.03
    49.217      3.82
    49.179      5.00
    49.142      5.45
    49.104      4.36
    49.066      7.22
    49.029      5.91
    48.991      6.90
    48.953      4.76
    48.916      4.93
    48.879      4.46
    48.841      5.84
    48.804      5.08
    48.766      4.61
    48.729      6.71
    48.692      7.07
    48.655      8.36
    48.618      7.37
    48.580     11.52
    48.543     10.01
    48.506     12.02
    48.469     19.05
    48.432     22.52
    48.396     23.50
    48.359     28.01
    48.322     35.43
    48.285     47.28
    48.248     46.15
    48.212     49.79
    48.175     54.15
    48.138     56.93
    48.102     46.88
    48.065     46.06
    48.029     40.90
    47.992     34.55
    47.956     29.30
    47.920     24.48
    47.883     20.26
    47.847     17.51
    47.811     12.78
    47.775     11.00
    47.739      8.47
    47.702      8.67
    47.666      9.29
    47.630      5.47
    47.594      7.42
    47.558      6.45
    47.522      5.94
    47.487      4.36
    47.451      5.88
    47.415      6.14
    47.379      8.63
    47.344      8.44
    47.308      7.64
    47.272      6.01
    47.237      5.75
    47.201      3.75
    47.166      6.91
    47.130      6.64
    47.095      5.57
    47.059      5.84
    47.024      4.29
    46.989      5.13
    46.954      7.93
    46.918      8.84
    46.883      6.50
    46.848      9.13
    46.813      4.63
    46.778      9.28
    46.743      7.89
    46.708     10.75
    46.673     13.13
    46.638     12.91
    46.603     15.99
    46.568     19.57
    46.534     23.14
    46.499     27.54
    46.464     31.52
    46.429     26.59
    46.395     30.16
    46.360     26.23
    46.326     25.73
    46.291     28.49
    46.257     24.29
    46.222     20.08
    46.188     14.58
    46.153     16.15
    46.119     10.69
    46.085      9.91
    46.051      9.34
    46.016      8.20
    45.982      6.96
    45.948      6.90
    45.914      7.02
    45.880      7.35
    45.846      6.74
    45.812      7.19
    45.778      6.71
    45.744      4.96
    45.710      7.32
    45.676      8.90
    45.643      9.59
    45.609      7.06
    45.575      9.65
    45.541      7.16
    45.508      7.32
    45.474     10.08
    45.441     15.49
    45.407     16.17
    45.373     13.04
    45.340     14.66
    45.307     17.27
    45.273     15.82
    45.240     14.01
    45.207     14.71
    45.173     10.38
    45.140     12.47
    45.107     12.51
    45.074      9.57
    45.041     10.08
    45.008      9.64
    44.974     10.20
    44.941     11.97
    44.908     11.70
    44.876      7.75
    44.843     10.77
    44.810     13.17
    44.777     13.64
    44.744     13.25
    44.711     14.10
    44.679     14.42
    44.646     15.66
    44.613     11.42
    44.581     13.07
    44.548     10.01
    44.515     10.29
    44.483      9.22
    44.451      9.30
    44.418      8.09
    44.386      8.35
    44.353      5.80
    44.321      5.25
    44.289      6.19
    44.256      5.71
    44.224      5.99
    44.192      5.27
    44.160      7.44
    44.128      2.98
    44.096      5.02
    44.064      4.73
    44.031      4.43
    44.000      7.19
    43.968      3.22
    43.936      4.51
    43.904      5.98
    43.872      6.14
    43.840      4.95
    43.808      5.56
    43.777      5.29
    43.745      5.32
    43.713      5.31
    43.682      5.59
    43.650      4.34
    43.618      5.73
    43.587      5.34
    43.555      3.98
    43.524      4.57
    43.492      3.63
    43.461      6.21
    43.430      7.11
    43.398      5.76
    43.367      3.42
    43.336      5.52
    43.305      6.27
    43.273      4.66
    43.242      7.12
    43.211      5.17
    43.180      3.22
    43.149      5.35
    43.118      2.42
    43.087      5.62
    43.056      6.24
    43.025      5.05
    42.994      5.49
    42.963      4.77
    42.932      6.06
    42.902      4.33
    42.871      5.90
    42.840      2.41
    42.809      5.54
    42.779      6.69
    42.748      4.67
    42.718      5.96
    42.687      1.81
    42.656      6.77
    42.626      4.66
    42.596      5.44
    42.565      4.50
    42.535      5.84
    42.504      6.96
    42.474      6.55
    42.444      6.49
    42.413      5.61
    42.383      4.75
    42.353      6.71
    42.323      3.39
    42.293      4.26
    42.263      6.23
    42.232      9.80
    42.202      4.18
    42.172      5.71
    42.142      5.02
    42.112      4.71
    42.083      7.77
    42.053      6.05
    42.023      7.84
    41.993      5.20
    41.963      5.97
    41.933      6.21
    41.904      5.42
    41.874      4.27
    41.844      3.73
    41.815      5.42
    41.785      6.81
    41.756      5.70
    41.726      6.69
    41.696      7.22
    41.667      5.87
    41.638      5.38
    41.608      5.67
    41.579      6.45
    41.549      4.08
    41.520      5.41
    41.491      5.83
    41.462      3.31
    41.432      1.92
    41.403      8.01
    41.374      7.81
    41.345      5.41
    41.316      7.05
    41.287      7.72
    41.258      7.71
    41.229      6.55
    41.200      9.46
    41.171      6.52
    41.142      9.33
    41.113      6.59
    41.084      8.48
    41.055      8.08
    41.026      8.45
    40.998      6.89
    40.969      7.57
    40.940      8.75
    40.911      6.00
    40.883      5.28
    40.854      5.88
    40.826      8.69
    40.797      7.26
    40.769     11.10
    40.740     10.72
    40.712      8.54
    40.683      8.87
    40.655      9.70
    40.626     12.55
    40.598     10.13
    40.570      9.91
    40.541      9.85
    40.513     12.88
    40.485     10.86
    40.457      9.61
    40.429      9.75
    40.400     10.50
    40.372     13.04
    40.344     12.69
    40.316     13.99
    40.288     12.44
    40.260     14.44
    40.232     17.57
    40.204     17.29
    40.176     14.16
    40.148     17.79
    40.121     22.01
    40.093     20.20
    40.065     30.93
    40.037     28.12
    40.010     38.62
    39.982     48.96
    39.954     61.49
    39.926     80.26
    39.899     83.79
    39.871     94.24
    39.844    158.02
    39.816    136.66
    39.789    102.50
    39.7619999999.00
    39.734    112.25
    39.706    117.62
    39.679    124.40
    39.652    136.66
    39.624    119.60
    39.597    121.90
    39.570     86.99
    39.5429999999.00
    39.5159999999.00
    39.488    129.66
    39.4619999999.00
    39.4349999999.00
    39.4079999999.00
    39.380    157.40
    39.352    150.82
    39.325    140.55
    39.298     81.08
    39.271     70.89
    39.245     52.53
    39.218     35.81
    39.191     29.82
    39.164     26.89
    39.137     20.51
    39.110     18.27
    39.083     16.13
    39.057     12.38
    39.030     13.64
    39.003     13.22
    38.977     11.40
    38.950      8.41
    38.923     11.15
    38.897      9.96
    38.870     11.90
    38.844      9.94
    38.817      6.95
    38.791      5.55
    38.764      7.54
    38.738      8.96
    38.711      5.92
    38.685      7.41
    38.659      6.92
    38.632      4.33
    38.606     10.25
    38.580      5.40
    38.554      9.86
    38.527      5.20
    38.501      3.92
    38.475      7.65
    38.449      6.26
    38.423      4.40
    38.397      3.91
    38.371      4.59
    38.345      8.23
    38.319      4.53
    38.293      3.48
    38.267      6.41
    38.241      7.10
    38.215      6.43
    38.189      6.23
    38.163      4.54
    38.138      4.70
    38.112      6.10
    38.086      5.72
    38.060      4.58
    38.035      5.15
    38.009      5.45
    37.983      4.45
    37.958      3.07
    37.932      6.34
    37.906      4.37
    37.881      1.39
    37.855      9.21
    37.830      5.69
    37.804      5.90
    37.779      5.80
    37.753      6.53
    37.728      3.77
    37.703      5.95
    37.677      7.56
    37.652      3.17
    37.627      5.31
    37.602      3.70
    37.576      4.88
    37.551      2.95
    37.526      5.40
    37.501      6.89
    37.476      5.06
    37.450      5.00
    37.425      3.27
    37.400      7.48
    37.375      4.96
    37.350      5.50
    37.325      5.49
    37.300      4.48
    37.275      2.28
    37.250      6.34
    37.226      4.71
    37.201      5.61
    37.176      4.77
    37.151      7.60
    37.126      6.47
    37.101      4.11
    37.077      5.37
    37.052      2.88
    37.027      4.88
    37.003      4.33
    36.978      7.17
    36.953      3.87
    36.929      5.43
    36.904      4.60
    36.880      5.36
    36.855      3.25
    36.831      6.46
    36.806      4.82
    36.782      5.13
    36.757      6.24
    36.733      4.83
    36.709      5.98
    36.684      2.19
    36.660      6.92
    36.636      3.45
    36.611      5.04
    36.587      3.51
    36.563      5.39
    36.539      2.08
    36.514      2.03
    36.490      4.84
    36.466      3.23
    36.442      4.19
    36.418      6.79
    36.394      6.06
    36.370      3.66
    36.346      2.74
    36.322      4.53
    36.298      6.30
    36.274      4.51
    36.250      4.72
    36.226      5.83
    36.202      5.11
    36.178      4.32
    36.155      5.46
    36.131      5.26
    36.107      1.90
    36.083      5.10
    36.060      6.52
    36.036      6.26
    36.012      3.66
    35.989      5.95
    35.965      6.47
    35.941      6.85
    35.918      5.77
    35.894      4.27
    35.871      3.23
    35.847      2.62
    35.824      4.55
    35.800      2.21
    35.777      4.90
    35.753      5.40
    35.730      3.25
    35.706      3.37
    35.683      5.18
    35.660      2.82
    35.636      4.00
    35.613      4.35
    35.590      5.55
    35.567      4.88
    35.543      5.39
    35.520      4.72
    35.497      3.66
    35.474      1.62
    35.451      4.68
    35.428      3.49
    35.405      5.65
    35.381      4.33
    35.358      1.60
    35.335      4.63
    35.312      4.80
    35.289      1.99
    35.266      6.45
    35.244      7.24
    35.221      3.97
    35.198      1.11
    35.175      3.72
    35.152      3.84
    35.129      5.41
    35.106      3.33
    35.084      6.60
    35.061      5.90
    35.038      4.38
    35.016      5.54
    34.993      3.81
    34.970      4.39
    34.948      4.70
    34.925      5.26
    34.902      5.10
    34.880      6.01
    34.857      4.84
    34.835      4.22
    34.812      4.54
    34.790      2.94
    34.767      2.49
    34.745      4.13
    34.722      2.46
    34.700      3.65
    34.678      3.59
    34.655      2.96
    34.633      5.54
    34.611      3.79
    34.588      3.05
    34.566      3.76
    34.544      3.66
    34.522      4.57
    34.499      3.54
    34.477      5.89
    34.455      2.85
    34.433      5.87
    34.411      6.00
    34.389      6.64
    34.367      6.18
    34.344      5.92
    34.322      1.48
    34.300      3.85
    34.278      4.35
    34.256      2.66
    34.234      6.91
    34.213      3.94
    34.191      3.65
    34.169      5.53
    34.147      4.33
    34.125      4.22
    34.103      5.16
    34.081      6.83
    34.060      4.42
    34.038      6.50
    34.016      4.12
    33.994      4.29
    33.973      3.86
    33.951      3.66
    33.929      5.80
    33.908      4.76
    33.886      4.66
    33.865      5.91
    33.843      6.65
    33.821      3.92
    33.800      5.67
    33.778      3.20
    33.757      3.84
    33.735      5.94
    33.714      5.19
    33.692      5.86
    33.671      7.86
    33.650      5.94
    33.628      5.98
    33.607      3.07
    33.586      2.74
    33.564      4.01
    33.543      4.71
    33.522      6.68
    33.501      5.32
    33.479      4.72
    33.458      4.81
    33.437      6.33
    33.416      5.86
    33.395      4.11
    33.373      5.15
    33.352      2.93
    33.331      5.92
    33.310      4.06
    33.289      5.60
    33.268      6.85
    33.247      4.21
    33.226      5.56
    33.205      5.30
    33.184      3.29
    33.163      3.47
    33.142      5.02
    33.122      4.33
    33.101      4.66
    33.080      6.34
    33.059      4.49
    33.038      5.46
    33.017      5.25
    32.997      6.86
    32.976      6.59
    32.955      3.44
    32.934      4.28
    32.914      5.89
    32.893      5.77
    32.872      4.20
    32.852      3.62
    32.831      5.99
    32.811      7.76
    32.790      5.57
    32.769      8.73
    32.749      6.15
    32.728      6.76
    32.708      6.39
    32.687      8.96
    32.667      7.09
    32.646      6.87
    32.626      8.15
    32.606      7.97
    32.585     11.86
    32.565     11.23
    32.545     13.11
    32.524     17.50
    32.504     14.35
    32.484     20.83
    32.463     26.18
    32.443     26.17
    32.423     31.97
    32.403     32.45
    32.382     36.19
    32.362     41.30
    32.342     39.32
    32.322     50.57
    32.302     52.24
    32.282     52.97
    32.262     59.12
    32.242     56.14
    32.222     54.75
    32.202     65.29
    32.182     51.20
    32.162     51.67
    32.142     43.83
    32.122     41.50
    32.102     38.24
    32.082     34.49
    32.062     31.52
    32.042     31.14
    32.022     22.85
    32.002     18.76
    31.983     16.01
    31.963     15.22
    31.943     14.03
    31.923     11.30
    31.903     15.97
    31.884     10.54
    31.864      9.76
    31.844      9.16
    31.825      9.85
    31.805      9.14
    31.785      8.61
    31.766      5.90
    31.746      8.54
    31.727      4.32
    31.707      4.80
    31.687      7.39
    31.668      7.33
    31.648      5.02
    31.629      4.86
    31.609      8.63
    31.590      7.89
    31.571      2.47
    31.551      5.78
    31.532      5.92
    31.512      8.34
    31.493      4.14
    31.474      8.15
    31.454      3.29
    31.435      4.90
    31.416      6.86
    31.396      3.45
    31.377      5.52
    31.358      6.03
    31.339      6.07
    31.319      4.38
    31.300      5.89
    31.281      5.88
    31.262      4.20
    31.243      3.55
    31.224      6.06
    31.205      5.52
    31.186      4.15
    31.166      4.29
    31.147      4.28
    31.128      3.53
    31.109      6.73
    31.090      5.05
    31.071      3.02
    31.052      5.18
    31.033      6.58
    31.015      6.62
    30.996      5.71
    30.977      6.28
    30.958      9.23
    30.939      6.26
    30.920      5.31
    30.901      2.31
    30.883      4.17
    30.864      6.16
    30.845      6.20
    30.826      5.15
    30.807      4.08
    30.789      8.26
    30.770      4.11
    30.751      3.90
    30.733      4.28
    30.714      3.39
    30.695      4.76
    30.677      4.65
    30.658      3.79
    30.640      3.93
    30.621      7.37
    30.602      5.58
    30.584      6.69
    30.565      6.57
    30.547      4.93
    30.528      4.51
    30.510      5.79
    30.492      8.60
    30.473      4.78
    30.455      6.18
    30.436      3.91
    30.418      3.30
    30.400      3.44
    30.381      5.61
    30.363      4.92
    30.344      4.00
    30.326      5.16
    30.308      3.34
    30.290      5.50
    30.271      5.80
    30.253      7.04
    30.235      5.73
    30.217      4.17
    30.199      7.68
    30.180      5.38
    30.162      3.35
    30.144      3.88
    30.126      2.69
    30.108      2.40
    30.090      4.24
    30.072      5.05
    30.054      4.02
    30.036      4.83
    30.018      5.60
    30.000      5.48
    29.982      3.23
    29.964      7.93
    29.946      2.25
    29.928      3.94
    29.910      5.90
    29.892      4.28
    29.874      4.88
    29.856      3.65
    29.838      4.96
    29.820      5.64
    29.803      5.52
    29.785      5.51
    29.767      4.05
    29.749      5.59
    29.731      6.61
    29.714      4.47
    29.696      3.95
    29.678      4.76
    29.661      3.28
    29.643      4.79
    29.625      7.04
    29.608      7.09
    29.590      6.19
    29.572      5.06
    29.555      4.94
    29.537      5.30
    29.520      5.56
    29.502      4.19
    29.484      3.72
    29.467      5.95
    29.449      4.41
    29.432      6.64
    29.414      4.18
    29.397      4.43
    29.380      4.73
    29.362      5.19
    29.345      4.19
    29.327      5.38
    29.310      7.07
    29.292      4.73
    29.275      7.51
    29.258      3.23
    29.240      4.96
    29.223      7.36
    29.206      4.57
    29.189      3.34
    29.171      4.55
    29.154      3.71
    29.137      7.31
    29.120      4.93
    29.102      4.82
    29.085      4.60
    29.068      8.19
    29.051      5.64
    29.034      4.67
    29.017      3.63
    28.999      5.82
    28.982      4.64
    28.965      3.40
    28.948      4.99
    28.931      2.29
    28.914      5.71
    28.897      5.49
    28.880      4.26
    28.863      5.25
    28.846      3.02
    28.829      5.39
    28.812      4.16
    28.795      6.41
    28.778      2.68
    28.761      4.81
    28.745      1.88
    28.728      5.65
    28.711      4.94
    28.694      4.98
    28.677      4.34
    28.660      4.59
    28.644      3.75
    28.627      6.08
    28.610      9.54
    28.593      6.28
    28.577      5.50
    28.560      4.05
    28.543      4.88
    28.526      4.35
    28.510      4.70
    28.493      6.33
    28.476      5.33
    28.460      4.30
    28.443      4.56
    28.427      5.95
    28.410      5.50
    28.393      5.38
    28.377      4.99
    28.360      3.67
    28.344      6.40
    28.327      4.16
    28.311      4.36
    28.294      4.14
    28.278      4.39
    28.261      3.55
    28.245      7.78
    28.228      7.19
    28.212      4.83
    28.196      4.45
    28.179      4.33
    28.163      3.39
    28.146      7.42
    28.130      5.81
    28.114      5.58
    28.097      9.39
    28.081      6.01
    28.065      5.50
    28.049      6.66
    28.032      3.92
    28.016      7.75
    28.000      3.80
    27.984      4.25
    27.967      4.19
    27.951      5.81
    27.935      5.41
    27.919      5.79
    27.903      3.63
    27.887      4.14
    27.870      5.64
    27.854      2.13
    27.838      8.54
    27.822      4.79
    27.806      3.41
    27.790      4.82
    27.774      5.97
    27.758      2.71
    27.742      5.23
    27.726      4.46
    27.710      3.19
    27.694      3.39
    27.678      4.21
    27.662      4.85
    27.646      2.84
    27.630      6.27
    27.614      6.72
    27.599      3.53
    27.583      4.10
    27.567      3.98
    27.551      4.50
    27.535      4.82
    27.519      5.86
    27.503      2.70
    27.488      6.93
    27.472      5.49
    27.456      6.39
    27.440      5.19
    27.425      8.02
    27.409      5.84
    27.393      2.57
    27.378      2.76
    27.362      5.19
    27.346      4.15
    27.331      7.00
    27.315      6.01
    27.299      4.39
    27.284      3.21
    27.268      4.42
    27.252      4.90
    27.237      4.73
    27.221      9.57
    27.206      7.63
    27.190      3.10
    27.175      5.35
    27.159      4.95
    27.144      3.22
    27.128      1.25
    27.113      5.81
    27.097      2.32
    27.082      7.49
    27.066      8.27
    27.051      6.93
    27.036      7.70
    27.020      6.09
    27.005      3.55
    26.989      5.05
    26.974      4.66
    26.959      5.26
    26.943      4.15
    26.928      7.62
    26.913      5.96
    26.898      6.88
    26.882      8.71
    26.867      4.75
    26.852      8.50
    26.837      2.24
    26.821      9.36
    26.806      8.65
    26.791      8.83
    26.776      7.22
    26.761      8.25
    26.745      5.79
    26.730      6.59
    26.715      5.83
    26.700      6.87
    26.685      7.52
    26.670      5.00
    26.655      7.62
    26.640      8.35
    26.625      5.36
    26.610      6.51
    26.595      6.50
    26.579      6.49
    26.564      3.83
    26.550      4.04
    26.535      4.19
    26.520      5.35
    26.505      7.03
    26.490      5.33
    26.475      5.15
    26.460      6.17
    26.445      5.01
    26.430      4.89
    26.415      8.07
    26.400      7.50
    26.385      6.06
    26.371      5.19
    26.356      3.21
    26.341      7.22
    26.326      2.87
    26.311      4.31
    26.297      6.29
    26.282      3.53
    26.267      6.15
    26.252      7.28
    26.238      3.71
    26.223      7.56
    26.208      3.69
    26.194      4.61
    26.179      5.97
    26.164      6.67
    26.150      5.95
    26.135      7.62
    26.120      7.12
    26.106      5.98
    26.091      7.35
    26.076      7.28
    26.062      3.86
    26.047      7.01
    26.033      4.89
    26.018      5.34
    26.004      4.82
    25.989      6.79
    25.975      6.01
    25.960      5.30
    25.946      8.82
    25.931      3.93
    25.917      6.26
    25.902      8.27
    25.888      7.39
    25.873      4.39
    25.859      7.87
    25.845      6.38
    25.830     10.95
    25.816      4.68
    25.802      6.00
    25.787      4.55
    25.773      7.00
    25.759      7.35
    25.744      7.59
    25.730      3.52
    25.716      3.18
    25.701      6.64
    25.687      5.92
    25.673      7.17
    25.659      6.43
    25.644      7.34
    25.630      3.06
    25.616      8.71
    25.602      8.83
    25.588      8.30
    25.573      9.01
    25.559      6.66
    25.545      8.79
    25.531     10.05
    25.517      9.63
    25.503      6.26
    25.489      8.36
    25.475      9.00
    25.460     10.13
    25.446      4.76
    25.432      8.52
    25.418      7.11
    25.404      9.02
    25.390     10.15
    25.376     10.42
    25.362     14.01
    25.348     13.61
    25.334     10.94
    25.320     11.87
    25.306     12.97
    25.292     20.90
    25.278     19.53
    25.265     21.07
    25.251     20.57
    25.237     24.32
    25.223     30.20
    25.209     31.02
    25.195     35.38
    25.181     36.86
    25.167     45.29
    25.154     56.80
    25.140     53.31
    25.126     60.35
    25.112     68.09
    25.098     74.68
    25.085     79.34
    25.071     85.77
    25.057     78.61
    25.043     87.61
    25.030     79.29
    25.016    109.22
    25.002     85.72
    24.989     75.85
    24.975     95.11
    24.961     75.20
    24.948     72.78
    24.934    115.77
    24.920     75.17
    24.907     81.45
    24.893     56.95
    24.880     64.64
    24.866     56.26
    24.852     47.91
    24.839     45.04
    24.825     39.27
    24.812     40.02
    24.798     32.00
    24.785     24.21
    24.771     33.48
    24.758     27.26
    24.744     23.40
    24.731     19.80
    24.717     19.79
    24.704     16.31
    24.690     12.97
    24.677     14.38
    24.663     12.50
    24.650     12.79
    24.637     16.35
    24.623     14.10
    24.610      8.56
    24.597     11.63
    24.583     10.89
    24.570     11.38
    24.557     10.16
    24.543      8.78
    24.530      5.07
    24.517      7.90
    24.503      8.22
    24.490      7.95
    24.477      8.60
    24.463      6.41
    24.450      9.59
    24.437      6.14
    24.424      4.40
    24.411      6.74
    24.397      7.62
    24.384      5.73
    24.371      8.92
    24.358      8.44
    24.345      6.31
    24.331      5.69
    24.318     10.69
    24.305      7.61
    24.292      6.65
    24.279      6.89
    24.266      6.07
    24.253      9.24
    24.240      7.56
    24.227      8.21
    24.214      5.97
    24.201      6.20
    24.188      4.69
    24.174      6.81
    24.161      8.83
    24.148      4.90
    24.135      5.18
    24.123      7.74
    24.110      9.33
    24.097      8.11
    24.084      7.97
    24.071      3.62
    24.058      5.49
    24.045      5.60
    24.032      7.15
    24.019      5.82
    24.006      6.87
    23.993      5.80
    23.980      7.56
    23.968      7.29
    23.955      4.57
    23.942      7.53
    23.929      4.79
    23.916      5.56
    23.903      9.17
    23.891      5.97
    23.878      7.42
    23.865      5.40
    23.852      7.92
    23.840      5.74
    23.827      6.17
    23.814      8.22
    23.801      4.93
    23.789      7.74
    23.776      6.38
    23.763      8.73
    23.751      8.17
    23.738      8.43
    23.725      5.23
    23.713      4.50
    23.700      4.97
    23.687      3.66
    23.675      7.58
    23.662     10.84
    23.649      4.87
    23.637      7.10
    23.624      4.02
    23.612      6.95
    23.599      6.94
    23.587      6.99
    23.574      6.03
    23.562      6.91
    23.549     10.02
    23.536      8.89
    23.524      6.63
    23.511      8.32
    23.499      4.28
    23.487      6.85
    23.474      8.23
    23.462      7.48
    23.449      7.94
    23.437      4.40
    23.424      9.85
    23.412      8.04
    23.399      6.85
    23.387      9.68
    23.375      7.88
    23.362      9.95
    23.350      8.13
    23.338     13.84
    23.325      6.53
    23.313     11.23
    23.301     10.92
    23.288      8.28
    23.276      6.82
    23.264      9.23
    23.251     10.96
    23.239      9.00
    23.227     15.43
    23.215     10.12
    23.202     13.00
    23.190     12.83
    23.178     10.97
    23.166     15.91
    23.153     13.61
    23.141     16.97
    23.129     18.56
    23.117     16.31
    23.105     15.42
    23.093     21.91
    23.080     20.94
    23.068     20.83
    23.056     23.21
    23.044     32.45
    23.032     30.06
    23.020     38.07
    23.008     31.81
    22.996     45.01
    22.984     43.61
    22.972     63.18
    22.959     50.18
    22.947     66.92
    22.935     85.03
    22.923     77.69
    22.911     84.09
    22.899     81.50
    22.887     84.97
    22.875    126.48
    22.8639999999.00
    22.851     86.88
    22.8399999999.00
    22.8279999999.00
    22.816    147.57
    22.8049999999.00
    22.7929999999.00
    22.7809999999.00
    22.7689999999.00
    22.756    126.27
    22.744     96.02
    22.732    109.46
    22.7209999999.00
    22.709    156.19
    22.697     86.76
    22.6859999999.00
    22.6739999999.00
    22.6619999999.00
    22.649    169.35
    22.6389999999.00
    22.6269999999.00
    22.614    126.27
    22.6029999999.00
    22.5909999999.00
    22.5799999999.00
    22.567    130.14
    22.555    107.25
    22.543    107.25
    22.532     92.02
    22.520     66.58
    22.508     44.14
    22.497     45.83
    22.485     39.37
    22.473     39.36
    22.462     34.07
    22.450     31.66
    22.438     22.59
    22.427     23.51
    22.415     23.49
    22.403     19.56
    22.392     20.06
    22.380     15.01
    22.369     15.09
    22.357     14.73
    22.345     16.69
    22.334     15.32
    22.322     21.07
    22.311     14.43
    22.299     13.91
    22.288     10.85
    22.276     10.54
    22.265      9.64
    22.253     11.28
    22.242     10.13
    22.230     11.11
    22.219     11.02
    22.207      8.44
    22.196     11.63
    22.184      9.13
    22.173     11.60
    22.162      6.17
    22.150      9.54
    22.139     11.27
    22.127     13.18
    22.116      9.51
    22.104     12.18
    22.093      8.21
    22.082      8.20
    22.070      5.96
    22.059      7.90
    22.048      8.31
    22.036     10.41
    22.025      8.36
    22.014      7.93
    22.002      8.62
    21.991      8.83
    21.980      8.75
    21.969     12.72
    21.957      8.66
    21.946      8.01
    21.935      7.38
    21.923     11.87
    21.912      9.42
    21.901      6.87
    21.890     10.98
    21.879      9.91
    21.867     11.98
    21.856     10.87
    21.845      7.93
    21.834     11.48
    21.823     14.89
    21.811     13.00
    21.800     12.17
    21.789     13.82
    21.778     14.95
    21.767     14.23
    21.756     17.92
    21.745     18.20
    21.734     19.20
    21.722     21.33
    21.711     23.14
    21.700     23.72
    21.689     25.70
    21.678     26.46
    21.667     30.71
    21.656     39.08
    21.645     34.76
    21.634     32.23
    21.623     41.37
    21.612     38.64
    21.601     38.24
    21.590     41.12
    21.579     45.30
    21.568     37.05
    21.557     51.06
    21.546     41.96
    21.535     43.56
    21.524     46.53
    21.513     38.96
    21.502     36.43
    21.491     38.94
    21.481     39.34
    21.470     37.16
    21.459     28.89
    21.448     35.11
    21.437     32.39
    21.426     28.15
    21.415     29.58
    21.404     20.40
    21.394     23.70
    21.383     21.93
    21.372     18.79
    21.361     16.80
    21.350     21.01
    21.340     14.93
    21.329     15.01
    21.318     14.91
    21.307     13.84
    21.296      8.74
    21.286      8.80
    21.275     13.90
    21.264      8.93
    21.253      9.89
    21.243     10.73
    21.232      9.65
    21.221      5.62
    21.211     10.39
    21.200     11.49
ENDDATA           8194
ENDSUBENT         8209
ENDENTRY             8
