ENTRY            F0599   20040601
SUBENT        F0599001   20040601
BIB                 11         17
TITLE      Thick-target backscattering technique to measure
           alpha-particle elastic scattering cross sections.
AUTHOR     (K.-M.Kallman,V.Z.Goldberg,T.Lonnroth,P.Manngard,
           A.E.Pakhomov,V.V.Pankratov)
INSTITUTE  (2SF ABA,4RUSRUS)
REFERENCE  (J,NIM/A,338,413,1994)
FACILITY   (VDGT,2SF ABA)
DETECTOR   (SIBAR) Seven detectors were used. An eight h detector
           was used to monitor the total charge, since the
           thickness of the target prevented from monitoring the
           current in a Faraday cup.
METHOD     (BCINT)
           Thick target backscattering technique.
ANALYSIS   (INTED)
SAMPLE     Natural Si plate with a thickness of 300 mu-m.
ERR-ANALYS (ERR-DIG)    Digitizing error
HISTORY    (20040302C)
ENDBIB              17
COMMON               1          3
EN-RSL
KEV
 20.
ENDCOMMON            3
ENDSUBENT           24
SUBENT        F0599002   20040601
BIB                  3          3
REACTION   (14-SI-28(A,EL)14-SI-28,,DA)
ERR-ANALYS (EN-ERR-DIG) Digitizing error
STATUS     (CURVE)Fig.4
ENDBIB               3
COMMON               3          3
ANG        EN-ERR-DIG ERR-DIG
ADEG       MEV        MB/SR
 173.       0.01       0.3
ENDCOMMON            3
DATA                 2        596
EN         DATA
MEV        MB/SR
 12.605     93.093
 12.625     112.47
 12.626     106.20
 12.626     99.365
 12.635     119.31
 12.643     159.20
 12.644     146.09
 12.644     152.36
 12.645     132.42
 12.645     139.26
 12.646     125.58
 12.652     185.41
 12.653     172.31
 12.653     179.14
 12.654     165.47
 12.662     199.09
 12.663     192.82
 12.674     187.70
 12.684     193.97
 12.685     180.86
 12.686     173.45
 12.686     167.18
 12.697     160.92
 12.698     154.08
 12.709     147.25
 12.710     140.98
 12.711     121.03
 12.711     114.77
 12.712     107.93
 12.721     127.30
 12.721     134.71
 12.723     101.66
 12.724     94.826
 12.735     87.990
 12.746     81.725
 12.757     75.459
 12.769     68.623
 12.769     62.356
 12.791     62.930
 12.801     69.770
 12.801     76.607
 12.811     82.307
 12.820     102.82
 12.821     95.985
 12.821     89.147
 12.830     115.93
 12.830     122.20
 12.831     109.09
 12.850     135.88
 12.851     129.04
 12.872     141.01
 12.883     136.45
 12.883     130.19
 12.895     123.35
 12.895     117.08
 12.895     110.25
 12.896     103.98
 12.907     97.142
 12.918     90.876
 12.919     83.469
 12.919     77.771
 12.920     70.933
 12.931     64.667
 12.932     57.830
 12.943     51.564
 12.954     44.728
 12.955     37.891
 12.966     31.625
 12.976     36.755
 12.986     49.863
 12.987     44.165
 12.997     57.273
 13.007     63.543
 13.017     70.383
 13.017     76.650
 13.027     83.490
 13.037     89.191
 13.048     96.600
 13.070     91.476
 13.070     84.639
 13.081     77.803
 13.093     71.537
 13.093     64.700
 13.094     58.432
 13.105     52.166
 13.105     45.328
 13.127     44.763
 13.137     51.603
 13.159     54.456
 13.192     48.765
 13.213     46.490
 13.224     53.330
 13.234     59.600
 13.234     66.437
 13.243     79.545
 13.243     86.383
 13.244     72.707
 13.252     105.76
 13.252     112.03
 13.253     93.222
 13.253     99.490
 13.262     117.16
 13.274     110.89
 13.285     104.06
 13.285     97.787
 13.297     90.952
 13.297     84.114
 13.308     77.848
 13.309     71.581
 13.309     64.743
 13.310     58.475
 13.330     74.434
 13.330     80.702
 13.331     61.328
 13.331     67.026
 13.338     113.18
 13.338     120.02
 13.339     99.507
 13.339     106.35
 13.340     86.972
 13.340     93.240
 13.347     139.97
 13.347     146.23
 13.348     126.29
 13.348     133.13
 13.356     159.91
 13.356     166.18
 13.357     153.07
 13.366     172.45
 13.366     179.29
 13.376     188.98
 13.376     186.13
 13.387     182.14
 13.388     175.30
 13.388     167.89
 13.400     161.63
 13.400     154.79
 13.411     147.96
 13.412     141.69
 13.423     135.42
 13.424     129.15
 13.424     122.32
 13.424     116.05
 13.436     110.92
 13.457     112.64
 13.479     109.22
 13.479     102.95
 13.491     95.549
 13.491     89.851
 13.492     83.013
 13.503     76.178
 13.514     68.773
 13.525     73.333
 13.546     78.466
 13.557     71.630
 13.558     65.362
 13.558     58.525
 13.570     51.689
 13.600     72.209
 13.600     79.616
 13.601     60.243
 13.610     85.886
 13.612     66.513
 13.621     90.447
 13.632     83.611
 13.643     76.776
 13.644     69.938
 13.644     63.670
 13.645     57.402
 13.645     50.565
 13.657     43.729
 13.657     37.461
 13.658     30.624
 13.679     28.919
 13.689     42.026
 13.699     48.296
 13.699     54.564
 13.700     35.191
 13.709     61.404
 13.709     68.242
 13.730     73.944
 13.730     80.782
 13.738     107.56
 13.739     94.459
 13.739     100.73
 13.740     87.622
 13.750     102.44
 13.761     96.173
 13.772     89.907
 13.773     83.639
 13.773     76.802
 13.774     69.964
 13.774     56.859
 13.775     50.021
 13.775     43.753
 13.785     64.268
 13.787     36.918
 13.788     24.382
 13.798     30.652
 13.831     21.541
 13.852     27.244
 13.862     40.351
 13.863     34.084
 13.872     47.191
 13.872     53.459
 13.893     60.871
 13.914     67.143
 13.947     66.010
 13.958     62.024
 13.969     57.467
 13.991     56.332
 14.012     58.046
 14.033     63.748
 14.044     70.588
 14.065     68.313
 14.066     54.638
 14.077     61.478
 14.088     48.374
 14.100     41.539
 14.111     35.273
 14.122     29.007
 14.134     22.172
 14.145     15.906
 14.156     13.629
 14.166     20.469
 14.176     26.739
 14.176     33.007
 14.187     26.741
 14.198     19.906
 14.220     23.329
 14.230     30.168
 14.230     37.006
 14.239     56.382
 14.240     49.544
 14.240     43.276
 14.249     62.652
 14.259     76.329
 14.260     69.492
 14.270     83.169
 14.281     80.322
 14.292     74.056
 14.303     67.791
 14.304     60.953
 14.304     54.115
 14.305     47.848
 14.316     41.012
 14.327     34.746
 14.370     37.604
 14.380     44.444
 14.413     45.020
 14.434     45.594
 14.434     52.432
 14.444     59.272
 14.444     65.540
 14.453     86.055
 14.454     78.647
 14.454     72.379
 14.462     106.00
 14.462     111.70
 14.463     91.755
 14.463     98.023
 14.469     170.96
 14.472     118.54
 14.478     184.64
 14.479     177.80
 14.480     157.86
 14.481     151.02
 14.481     144.75
 14.482     137.91
 14.482     131.65
 14.483     124.24
 14.488     204.58
 14.489     191.48
 14.491     164.70
 14.496     237.06
 14.497     223.96
 14.497     230.23
 14.498     210.85
 14.498     217.69
 14.499     197.75
 14.510     190.91
 14.511     184.64
 14.511     177.81
 14.512     170.97
 14.513     157.86
 14.523     164.13
 14.524     151.03
 14.524     144.76
 14.525     138.49
 14.526     125.96
 14.526     118.55
 14.527     111.71
 14.536     132.23
 14.538     104.88
 14.539     98.608
 14.539     92.340
 14.540     84.932
 14.551     78.667
 14.551     72.399
 14.552     66.131
 14.552     59.863
 14.553     52.456
 14.564     46.190
 14.575     39.924
 14.607     51.897
 14.628     54.180
 14.650     47.347
 14.672     42.793
 14.705     38.241
 14.727     36.536
 14.749     29.702
 14.771     24.009
 14.793     19.455
 14.804     13.189
 14.836     14.335
 14.837     8.0671
 14.846     27.443
 14.847     21.175
 14.857     34.282
 14.867     41.122
 14.877     47.392
 14.887     54.802
 14.907     81.017
 14.907     87.285
 14.908     74.180
 14.908     67.342
 14.909     60.504
 14.917     94.125
 14.917     99.823
 14.926     120.34
 14.927     112.93
 14.927     106.66
 14.948     112.93
 14.959     106.10
 14.960     100.97
 14.960     93.564
 14.972     86.728
 14.983     79.893
 14.983     73.055
 14.984     66.787
 14.995     60.522
 14.996     53.684
 14.996     46.846
 15.007     41.150
 15.019     34.315
 15.019     28.047
 15.041     21.783
 15.074     21.220
 15.095     28.062
 15.136     48.014
 15.137     40.037
 15.138     33.769
 15.147     53.714
 15.168     59.986
 15.211     65.693
 15.232     70.256
 15.233     63.418
 15.233     57.150
 15.244     50.885
 15.245     44.047
 15.245     37.779
 15.257     31.513
 15.257     24.106
 15.277     40.635
 15.278     27.529
 15.278     34.367
 15.279     20.691
 15.287     54.312
 15.287     61.720
 15.288     48.044
 15.297     67.420
 15.306     93.063
 15.306     100.47
 15.307     87.365
 15.307     74.260
 15.307     80.527
 15.316     106.74
 15.327     105.03
 15.338     98.198
 15.339     91.360
 15.350     85.095
 15.361     78.259
 15.362     71.991
 15.362     65.723
 15.363     58.886
 15.374     52.050
 15.385     45.215
 15.386     38.947
 15.397     32.681
 15.429     32.688
 15.440     38.388
 15.461     45.230
 15.493     41.817
 15.505     35.552
 15.505     28.714
 15.516     22.448
 15.528     15.613
 15.571     11.063
 15.604     13.919
 15.636     15.634
 15.658     14.499
 15.679     21.341
 15.688     34.449
 15.689     28.181
 15.698     48.126
 15.699     40.719
 15.709     54.396
 15.730     57.250
 15.763     52.698
 15.796     47.006
 15.807     41.310
 15.828     45.873
 15.838     58.411
 15.839     51.573
 15.859     62.974
 15.871     56.138
 15.871     49.301
 15.882     43.035
 15.883     36.197
 15.905     29.934
 15.925     47.032
 15.925     53.300
 15.926     33.357
 15.926     40.194
 15.935     59.570
 15.945     72.678
 15.946     66.410
 15.966     81.799
 15.988     75.535
 16.010     69.272
 16.011     63.004
 16.011     56.166
 16.022     49.331
 16.044     43.067
 16.045     36.799
 16.056     29.964
 16.057     23.696
 16.068     17.430
 16.079     10.595
 16.101     13.448
 16.133     14.024
 16.154     20.297
 16.187     19.733
 16.219     15.751
 16.251     22.595
 16.262     28.865
 16.272     35.135
 16.305     31.723
 16.316     25.457
 16.327     19.761
 16.338     12.926
 16.382     7.8063
 16.447     7.2495
 16.457     13.519
 16.489     20.364
 16.522     18.661
 16.576     17.532
 16.598     11.268
 16.630     8.4258
 16.640     21.534
 16.641     15.266
 16.661     27.806
 16.683     24.961
 16.694     18.695
 16.717     12.432
 16.771     6.1747
 16.814     11.881
 16.835     18.154
 16.878     20.441
 16.898     39.819
 16.899     27.283
 16.908     52.927
 16.909     46.659
 16.909     33.553
 16.916     92.246
 16.917     72.872
 16.917     79.710
 16.918     66.604
 16.918     59.767
 16.926     99.655
 16.926     105.92
 16.927     85.980
 16.937     99.088
 16.948     92.252
 16.949     85.414
 16.960     79.718
 16.961     72.311
 16.961     66.043
 16.962     59.775
 16.973     53.510
 16.973     46.102
 16.974     39.834
 16.985     32.999
 16.996     26.733
 16.997     20.465
 17.008     13.630
 17.019     6.7942
 17.041     5.0891
 17.106     9.6605
 17.116     16.500
 17.136     36.448
 17.137     29.040
 17.137     22.773
 17.146     43.288
 17.157     43.860
 17.169     37.024
 17.180     30.758
 17.180     23.921
 17.192     17.655
 17.192     11.387
 17.236     5.6978
 17.268     7.9835
 17.300     14.258
 17.310     20.528
 17.331     27.370
 17.342     33.070
 17.375     26.809
 17.396     31.941
 17.406     38.211
 17.438     40.497
 17.471     38.794
 17.492     45.066
 17.513     51.338
 17.524     57.608
 17.545     64.450
 17.567     61.036
 17.567     54.768
 17.600     53.635
 17.611     46.799
 17.622     40.534
 17.623     34.266
 17.623     27.998
 17.645     24.583
 17.645     21.165
 17.667     20.029
 17.700     13.198
 17.754     8.0808
 17.796     20.055
 17.797     13.787
 17.807     26.895
 17.828     29.748
 17.850     22.915
 17.861     17.219
 17.894     11.528
 17.915     17.800
 17.926     24.640
 17.935     44.015
 17.936     37.178
 17.936     31.480
 17.945     51.425
 17.945     57.693
 17.955     63.963
 17.965     77.070
 17.965     83.908
 17.966     70.803
 17.975     90.178
 17.997     90.752
 18.008     83.917
 18.019     77.081
 18.030     70.816
 18.031     63.978
 18.031     56.570
 18.032     50.872
 18.043     44.607
 18.054     37.771
 18.066     31.505
 18.088     24.672
 18.131     20.122
 18.175     19.561
 18.186     13.295
 18.208     7.0319
 18.262     8.7521
 18.294     15.596
 18.327     10.475
 18.370     11.623
 18.424     7.6449
 18.489     4.2391
 18.510     11.081
 18.531     16.783
 18.563     21.348
 18.596     22.494
 18.650     19.656
 18.660     25.926
 18.682     27.640
 18.704     20.807
 18.715     14.541
 18.748     9.4192
 18.824     8.2947
 18.856     15.709
 18.888     22.553
 18.920     19.710
 18.974     19.721
 18.996     13.458
 19.018     6.6242
 19.050     10.050
 19.083     8.3466
ENDDATA            598
ENDSUBENT          610
SUBENT        F0599003   20040601
BIB                  3          4
REACTION   (14-SI-28(A,EL)14-SI-28,,DA,,REL)
ERR-ANALYS (ANG-ERR-D)  Digitizing error
           (DATA-ERR1)   Error from the graphic bars.
STATUS     (CURVE)Fig.6
ENDBIB               4
COMMON               4          3
EN-MIN     EN-MAX     ANG-ERR-D  ERR-DIG
MEV        MEV        ADEG       ARB-UNITS
 14.03      14.13      0.2        0.02
ENDCOMMON            3
DATA                 3         21
ANG-CM     DATA-CM    DATA-ERR1
ADEG       ARB-UNITS  ARB-UNITS
 114.71    0.78831E-010.91840E-02
 117.58    0.56971E-01
 120.46    0.36029E-01
 124.17    0.39034E-01
 127.03    0.63115E-010.73507E-02
 129.77    0.63298E-010.73507E-02
 133.47    0.92949E-010.10107E-01
 136.08    0.67396E-010.64318E-02
 138.89    0.48288E-01
 142.49    0.21881E-01
 145.22    0.34009E-01
 147.81    0.67261E-010.82695E-02
 151.44    0.12539    0.14701E-01
 154.11    0.14027    0.15620E-01
 156.79    0.11840    0.12859E-01
 160.26    0.52473E-01
 162.88    0.25082E-01
 165.48    0.45471E-01
 168.89    0.17158    0.18381E-01
 171.44    0.33898    0.33997E-01
 174.03    0.59460    0.60643E-01
ENDDATA             23
ENDSUBENT           36
ENDENTRY             3
