ENTRY            21254     800908              20050926       0000
SUBENT        21254001     800908              20050926       0000
BIB                 12         15
INSTITUTE  (2GERHAM)
REFERENCE  (P,EANDC(E)-57U,20,6502) ABSTRACT.
AUTHOR     (H.GENZ,H.BORMANN)
TITLE      -TOTAL NEUTRON CROSS SECTION OF COPPER IN THE ENERGY
            RANGE 4.2 TO 6.2 MEV -.
FACILITY   (VDG  ) 3MV VAN DER GRAAFF.
INC-SOURCE (D-D  ) DEUTERIUM BEAM ON DEUTERIUM GAS TARGET.
SAMPLE     .NATURAL COPPER METAL.
METHOD     (TOF  ) TIME OF FLIGHT.
DETECTOR   (SCIN ) NO DETAILS.
MONITOR    (1-H-1(N,EL)1-H-1,,SIG) STILBENE PROTON RECOIL
            SPECTROMETER WITH PULSE SHAPE DISCRIMINATION.
STATUS     (NDD  )
HISTORY    (800116T)
           (800118E)
ENDBIB              15
NOCOMMON             0          0
ENDSUBENT           18
SUBENT        21254002     800118              20050926       0000
BIB                  3          3
REACTION   (29-CU-0(N,TOT),,SIG) TOTAL CROSS SECTION.
STATUS     (NDD  )
ERR-ANALYS .MAXIMUM ERROR AT ONE STANDARD DEVIATION.
ENDBIB               3
COMMON               2          3
EN-RSL     DATA-ERR
MEV        PER-CENT
 3.0000E-01 3.0000E+00
ENDCOMMON            3
DATA                 2         42
EN         DATA
MEV        B
 4.1600E+00 3.4600E+00
 4.2100E+00 3.5200E+00
 4.2500E+00 3.6000E+00
 4.2900E+00 3.5100E+00
 4.3400E+00 3.5200E+00
 4.3800E+00 3.5200E+00
 4.4300E+00 3.5200E+00
 4.4800E+00 3.5600E+00
 4.5300E+00 3.5900E+00
 4.5800E+00 3.6100E+00
 4.6200E+00 3.5800E+00
 4.6700E+00 3.6200E+00
 4.7200E+00 3.5700E+00
 4.7700E+00 3.6300E+00
 4.8100E+00 3.6400E+00
 4.8600E+00 3.6100E+00
 4.9100E+00 3.6600E+00
 4.9600E+00 3.6100E+00
 5.0100E+00 3.6500E+00
 5.0500E+00 3.6800E+00
 5.1000E+00 3.7100E+00
 5.1500E+00 3.6900E+00
 5.2000E+00 3.6800E+00
 5.2500E+00 3.6800E+00
 5.3000E+00 3.6300E+00
 5.3500E+00 3.7000E+00
 5.4000E+00 3.7300E+00
 5.4600E+00 3.6800E+00
 5.5200E+00 3.7100E+00
 5.5700E+00 3.7100E+00
 5.6200E+00 3.6800E+00
 5.6700E+00 3.7000E+00
 5.7200E+00 3.7500E+00
 5.7700E+00 3.6700E+00
 5.8300E+00 3.6500E+00
 5.8800E+00 3.7000E+00
 5.9300E+00 3.6900E+00
 5.9900E+00 3.6500E+00
 6.0400E+00 3.6800E+00
 6.1100E+00 3.6700E+00
 6.1600E+00 3.7100E+00
 6.2200E+00 3.6500E+00
ENDDATA             44
ENDSUBENT           56
ENDENTRY             2
