ENTRY            C2707   20220120   20220803   20220802       C212
SUBENT        C2707001   20220120   20220803   20220802       C212
BIB                  8         12
TITLE      High resolution study of the 34S(p,p) reaction
AUTHOR     (D.A.Outlaw,G.E.Mitchell,E.G.Bilpuch)
INSTITUTE  (1USANCS,1USATNL,1USADKE)
REFERENCE  (J,NP/A,284,1,1977)
           #doi:10.1016/0375-9474(77)90681-9
FACILITY   (VDG,1USATNL)
REL-REF    (I,,D.A.Outlaw+,J,NP/A,269,99,1976)
SAMPLE     The 34S targets were prepared by evaporating CdS
           onto 5-10 mu-g/cm2 carbon backings
           (16-S-34,ENR=0.9000)
           (16-S-32,ENR=0.0958)
HISTORY    (20220120C) OG
ENDBIB              12
NOCOMMON             0          0
ENDSUBENT           15
SUBENT        C2707002   20220120   20220803   20220802       C212
BIB                  3          4
REACTION   (16-S-34(P,EL)16-S-34,,DA)
ERR-ANALYS No information on uncertainties.
STATUS     (CURVE) Fig.1 (p.3) in Nucl.Phys.A,284,1,1977 was
           digitized by GSYS2.4.7.
ENDBIB               4
COMMON               1          3
ANG
ADEG
160.
ENDCOMMON            3
DATA                 2       1659
EN         DATA
KEV        MB/SR
   1450.687    175.820
   1451.034    171.418
   1452.221    172.888
   1452.905    169.535
   1453.929    166.602
   1455.972    164.091
   1457.749    166.539
   1459.020    171.017
   1460.560    163.682
   1461.063    168.296
   1463.614    166.834
   1464.981    161.596
   1465.158    156.983
   1465.854    146.711
   1466.015    151.953
   1466.198    143.567
   1467.346    170.617
   1468.212    159.507
   1471.094    163.707
   1471.103    158.255
   1473.311    158.261
   1474.663    162.877
   1475.867    153.863
   1476.711    157.220
   1479.097    152.823
   1479.261    156.597
   1481.303    154.086
   1482.568    150.049
   1484.185    158.286
   1484.405    149.827
   1486.228    155.775
   1486.791    150.966
   1487.719    144.847
   1488.998    148.931
   1489.006    143.717
   1490.655    146.441
   1491.209    144.175
   1491.218    138.508
   1492.684    140.552
   1493.792    136.474
   1494.716    132.849
   1495.644    126.957
   1496.201    123.105
   1498.228    118.349
   1498.416    115.629
   1499.529    108.378
   1500.091    101.578
   1501.018     96.140
   1501.395     89.566
   1501.959     81.180
   1502.224     28.361
   1502.334     76.420
   1503.448     68.489
   1503.831     58.062
   1504.393     51.036
   1504.593     40.835
   1505.154     34.262
   1505.530     28.369
   1506.822     24.518
   1508.035     71.220
   1508.159    109.531
   1508.626    163.939
   1508.853    136.283
   1509.027    260.965
   1509.192    272.980
   1509.289    209.959
   1509.491    316.732
   1509.541    284.769
   1510.084    289.984
   1510.246    303.813
   1511.457    352.101
   1512.576    340.996
   1512.796    317.194
   1513.377    298.379
   1513.937    292.487
   1514.509    278.660
   1515.079    266.420
   1515.456    260.073
   1515.839    249.873
   1516.762    246.928
   1517.324    240.129
   1518.433    235.371
   1519.728    229.480
   1520.467    226.308
   1520.840    222.455
   1522.688    215.205
   1523.428    211.806
   1524.146    222.689
   1525.807    217.253
   1526.369    210.000
   1526.914    213.855
   1528.764    205.245
   1529.322    201.166
   1529.490    210.914
   1530.613    197.315
   1530.804    192.555
   1532.639    193.693
   1533.199    187.573
   1534.856    185.310
   1535.030    191.205
   1537.606    188.490
   1537.617    181.463
   1541.292    180.111
   1541.836    184.193
   1543.117    187.370
   1545.148    180.347
   1546.624    176.044
   1548.087    180.354
   1549.747    175.824
   1551.910    201.899
   1551.956    172.202
   1552.126    181.044
   1552.487    185.352
   1553.024    194.421
   1553.372    206.890
   1553.438    164.045
   1553.983    167.673
   1555.067    179.464
   1557.280    173.802
   1559.119    172.219
   1560.960    168.823
   1561.317    175.625
   1561.689    172.679
   1561.888    162.705
   1564.641    164.298
   1564.813    171.779
   1567.020    169.518
   1567.211    164.984
   1569.216    174.963
   1569.590    170.204
   1570.337    162.271
   1571.445    158.193
   1572.353    164.996
   1572.525    172.704
   1572.910    161.371
   1573.812    171.574
   1575.287    167.724
   1575.297    161.376
   1577.679    165.009
   1577.854    170.903
   1579.520    162.066
   1580.986    164.563
   1581.543    160.711
   1583.558    163.663
   1584.282    170.692
   1585.575    165.708
   1588.329    166.394
   1589.071    161.409
   1589.241    170.704
   1590.701    176.148
   1591.641    162.095
   1592.747    160.057
   1595.126    165.277
   1595.685    159.838
   1596.062    153.944
   1599.538    162.794
   1600.818    166.197
   1602.112    160.533
   1602.133    147.385
   1605.414    163.488
   1606.708    158.050
   1607.998    154.653
   1608.554    151.480
   1608.746    146.040
   1610.381    157.832
   1612.784    148.090
   1612.960    152.851
   1613.689    156.253
   1615.167    151.043
   1616.817    152.860
   1618.110    148.103
   1618.282    155.584
   1619.006    162.160
   1621.034    156.950
   1621.227    151.284
   1622.685    158.315
   1623.438    146.302
   1623.609    154.463
   1625.818    151.521
   1626.192    147.215
   1626.548    154.243
   1627.646    156.739
   1629.129    147.902
   1629.674    151.757
   1631.315    159.695
   1631.873    154.936
   1633.889    157.661
   1635.354    160.838
   1636.467    153.133
   1637.391    149.735
   1639.206    163.794
   1639.218    156.087
   1639.578    160.621
   1640.325    152.462
   1640.518    146.795
   1642.522    157.001
   1643.080    152.242
   1644.003    149.751
   1644.193    145.671
   1645.115    142.952
   1646.021    150.889
   1646.582    144.543
   1646.761    147.490
   1649.329    149.310
   1649.333    146.816
   1650.610    152.487
   1651.718    148.862
   1652.827    143.877
   1653.382    141.385
   1653.739    147.733
   1655.397    144.564
   1655.956    139.351
   1658.511    150.238
   1658.702    145.251
   1660.729    140.949
   1661.821    147.526
   1662.206    135.965
   1664.206    149.118
   1665.130    145.493
   1666.773    151.618
   1667.330    147.992
   1668.978    151.170
   1669.351    147.090
   1670.435    158.654
   1671.357    156.389
   1671.914    152.764
   1673.195    155.260
   1673.403    139.846
   1673.580    144.380
   1676.154    142.346
   1676.699    146.201
   1677.993    140.990
   1679.457    143.940
   1680.553    148.023
   1680.726    154.825
   1680.888    168.653
   1680.898    162.306
   1681.115    140.997
   1681.249    172.735
   1681.261    165.254
   1681.679    132.384
   1682.042    134.879
   1682.405    138.053
   1683.129    145.082
   1684.235    141.911
   1685.710    138.741
   1686.268    133.755
   1688.465    138.068
   1688.826    142.149
   1691.221    137.621
   1691.764    143.063
   1693.421    139.893
   1694.163    135.134
   1695.628    138.311
   1696.736    134.460
   1698.015    138.317
   1698.940    133.785
   1699.663    141.494
   1701.138    137.644
   1702.229    145.128
   1702.602    141.275
   1704.087    131.077
   1704.814    136.066
   1706.288    132.669
   1707.755    134.259
   1708.483    138.568
   1709.414    130.636
   1709.421    126.102
   1709.589    135.851
   1710.529    122.025
   1710.907    115.451
   1711.112    101.397
   1711.124     93.916
   1711.281    110.918
   1711.292    103.891
   1712.161    135.630
   1714.201    122.940
   1714.557    129.968
   1714.882    157.399
   1714.956    109.567
   1714.968    101.859
   1714.991     87.124
   1715.084    145.611
   1715.126    118.635
   1715.163     94.379
   1715.415    169.188
   1715.499    115.009
   1715.604    165.335
   1715.794    161.708
   1715.813    149.240
   1715.927    194.353
   1716.014    138.133
   1716.098    202.061
   1716.447    213.849
   1716.882    170.552
   1716.898    160.351
   1717.099    149.017
   1717.290    144.030
   1719.133    140.180
   1719.326    133.833
   1719.890    125.447
   1720.250    130.435
   1720.965    142.905
   1722.448    134.294
   1722.609    148.803
   1723.912    137.698
   1724.637    143.594
   1726.101    146.998
   1726.665    138.838
   1727.425    122.518
   1728.889    125.695
   1730.350    130.686
   1730.895    134.541
   1733.830    137.268
   1734.753    134.097
   1735.125    130.924
   1736.416    127.300
   1736.958    133.195
   1738.443    123.224
   1738.633    119.144
   1738.984    129.346
   1739.716    131.388
   1739.889    137.962
   1740.827    125.497
   1742.658    128.901
   1742.837    132.302
   1744.317    124.825
   1745.029    139.561
   1745.782    127.549
   1745.959    131.856
   1746.871    136.392
   1747.262    121.205
   1747.805    125.740
   1749.079    133.677
   1750.188    128.692
   1750.928    125.520
   1751.096    135.495
   1751.673    118.721
   1752.748    136.179
   1753.876    119.180
   1754.433    115.554
   1754.784    125.983
   1755.875    133.240
   1756.606    135.508
   1757.357    124.629
   1758.635    129.846
   1759.194    124.633
   1759.750    121.007
   1760.462    135.744
   1761.019    132.118
   1761.025    127.811
   1762.321    121.694
   1763.426    119.656
   1763.969    124.644
   1765.090    112.179
   1765.453    115.127
   1765.987    125.783
   1766.914    120.571
   1767.655    116.266
   1768.561    124.429
   1769.678    114.230
   1770.973    108.566
   1771.139    119.674
   1771.519    111.741
   1771.685    123.076
   1773.533    115.373
   1773.706    122.174
   1773.724    111.066
   1775.182    118.097
   1776.096    121.046
   1776.289    114.699
   1777.763    111.756
   1777.953    107.449
   1779.216    122.414
   1779.224    117.426
   1781.791    119.926
   1781.808    108.818
   1782.717    114.941
   1783.805    123.785
   1785.281    119.481
   1785.292    112.680
   1786.558    124.925
   1786.752    118.124
   1787.122    116.765
   1788.571    129.917
   1789.300    133.319
   1789.492    127.652
   1790.412    126.974
   1790.800    113.600
   1791.500    135.591
   1792.076    119.724
   1792.618    125.392
   1793.160    131.061
   1794.646    120.637
   1795.005    125.851
   1796.497    111.120
   1796.818    141.044
   1796.856    116.335
   1797.754    129.712
   1797.763    124.044
   1798.335    109.991
   1798.857    128.807
   1799.243    116.567
   1800.903    112.264
   1801.264    116.572
   1802.369    114.081
   1802.380    107.053
   1804.027    110.911
   1805.307    114.768
   1806.050    109.329
   1806.790    105.477
   1808.248    112.734
   1808.623    108.201
   1811.005    111.834
   1811.193    108.661
   1812.285    115.011
   1812.844    109.798
   1813.032    107.305
   1814.507    103.228
   1814.677    112.523
   1815.062    100.962
   1815.232    109.804
   1815.422    105.724
   1817.812    104.369
   1818.367    101.424
   1819.657     98.706
   1820.014    105.281
   1821.305    101.884
   1821.321     91.229
   1822.247     86.698
   1822.992     79.672
   1823.345     88.967
   1824.840     72.422
   1825.039     62.221
   1825.424     50.888
   1826.923     32.076
   1826.944     18.474
   1827.633     47.492
   1827.646     39.332
   1827.870     13.036
   1828.555    282.803
   1828.762    385.949
   1828.933    393.883
   1828.946    267.388
   1828.991    238.145
   1829.036    209.128
   1829.041    324.515
   1829.075    183.965
   1829.088    412.699
   1829.137     25.507
   1829.162    365.094
   1829.266    416.327
   1829.287    402.952
   1829.332     17.800
   1829.452     59.058
   1829.475     44.096
   1829.521    132.960
   1829.619    425.395
   1829.694    376.883
   1829.700    373.483
   1829.707    368.949
   1829.740    347.413
   1829.810    421.089
   1829.975    314.543
   1830.047    386.632
   1830.225    390.033
   1830.237    382.325
   1830.637    361.017
   1830.701    319.985
   1830.847    344.242
   1830.920    296.863
   1830.951    277.141
   1831.533    256.967
   1831.736    244.726
   1832.119    234.072
   1832.334    214.350
   1832.364    195.081
   1832.368    192.134
   1832.528    207.550
   1832.719    202.563
   1833.498    174.228
   1834.249    163.802
   1835.000    152.696
   1835.926    148.164
   1837.037    142.273
   1837.041    139.326
   1838.319    144.089
   1839.615    137.972
   1839.624    132.078
   1840.536    135.707
   1841.647    130.042
   1841.826    132.763
   1843.121    127.099
   1844.027    135.035
   1844.774    126.649
   1844.953    130.050
   1846.603    131.867
   1846.808    118.266
   1847.529    126.656
   1848.627    129.378
   1848.642    119.631
   1849.549    127.114
   1851.025    122.357
   1851.388    125.531
   1852.486    128.027
   1853.052    118.054
   1854.141    126.898
   1854.145    124.178
   1854.150    120.777
   1856.719    122.370
   1857.266    124.865
   1859.472    123.283
   1859.831    128.725
   1861.305    125.555
   1862.217    129.637
   1863.144    123.972
   1863.333    120.799
   1866.089    119.672
   1866.269    122.393
   1867.745    117.862
   1869.392    121.720
   1870.680    120.136
   1872.700    120.368
   1873.073    116.515
   1875.459    117.427
   1876.374    119.696
   1876.928    117.884
   1877.658    120.606
   1879.675    122.651
   1880.046    120.158
   1880.775    124.014
   1880.781    119.933
   1882.430    122.431
   1882.806    117.444
   1884.645    115.409
   1885.188    120.624
   1885.742    118.585
   1887.578    119.269
   1888.502    115.644
   1889.940    135.370
   1890.222    190.457
   1890.420    181.617
   1890.435    171.642
   1890.465    152.373
   1890.769    193.406
   1890.934    205.421
   1891.312     79.607
   1891.489     84.368
   1891.636    107.491
   1891.862    198.849
   1892.079    177.314
   1892.201     98.424
   1892.481    155.325
   1892.639    171.421
   1893.610    137.646
   1893.982    134.700
   1894.742    117.926
   1896.584    114.757
   1897.698    106.598
   1899.140    124.737
   1899.892    113.178
   1902.272    118.171
   1903.013    114.319
   1904.672    109.789
   1905.583    115.005
   1908.161    110.704
   1909.622    115.468
   1910.549    110.256
   1911.827    114.793
   1914.035    112.304
   1915.498    116.615
   1916.792    111.177
   1917.336    115.259
   1918.994    112.089
   1919.918    108.691
   1921.573    106.882
   1923.230    104.619
   1924.022     67.216
   1924.709     98.275
   1925.069    103.036
   1925.085     92.835
   1925.104     80.593
   1925.827     87.623
   1925.847     75.155
   1926.225     68.128
   1926.385     83.317
   1926.589     70.169
   1926.691    122.762
   1926.989    167.422
   1927.020    147.246
   1927.028    142.259
   1927.216    139.539
   1927.226    133.191
   1927.249    118.003
   1927.360    165.382
   1928.874    136.369
   1928.886    128.435
   1929.811    123.903
   1930.367    120.957
   1930.743    115.291
   1932.041    107.586
   1932.217    112.121
   1933.506    110.310
   1934.787    113.033
   1936.801    117.119
   1937.549    108.279
   1937.728    111.680
   1938.105    105.334
   1939.566    110.324
   1939.756    106.244
   1942.140    108.744
   1943.235    113.053
   1944.515    116.684
   1945.448    107.391
   1948.016    109.211
   1948.205    106.038
   1950.588    108.990
   1951.143    106.045
   1953.692    120.786
   1953.698    116.705
   1953.702    113.985
   1953.727     97.663
   1954.078    108.545
   1957.018    107.419
   1959.408    105.611
   1961.044    116.496
   1961.233    113.096
   1961.588    121.258
   1961.973    110.151
   1962.162    106.751
   1962.697    116.500
   1962.902    102.672
   1965.288    104.265
   1966.752    107.215
   1968.411    103.592
   1968.958    105.860
   1970.250    101.783
   1972.079    106.774
   1972.431    116.523
   1972.822    101.335
   1973.196     97.256
   1973.202     93.402
   1973.208     89.548
   1973.541    111.085
   1973.548    107.004
   1975.392    102.248
   1976.298    109.958
   1977.225    104.519
   1978.333    100.442
   1979.624     97.271
   1979.798    102.939
   1982.705    123.575
   1982.934     94.558
   1982.951     82.997
   1982.957     79.143
   1983.314     85.945
   1983.408    143.752
   1983.414    140.352
   1983.472    102.947
   1983.479     98.414
   1983.587    147.153
   1983.675     90.026
   1983.800    127.884
   1983.975    133.779
   1984.189    114.284
   1984.336    137.407
   1984.539    125.393
   1985.096    121.540
   1985.663    110.887
   1986.388    117.009
   1987.130    112.477
   1987.505    107.491
   1989.339    109.309
   1989.528    105.682
   1989.716    102.735
   1992.281    106.595
   1992.459    110.223
   1993.936    105.466
   1995.408    103.429
   1996.699    100.032
   1996.888     96.858
   1998.528    105.250
   1999.811    106.840
   2000.184    102.987
   2001.475     99.816
   2002.382    106.619
   2002.926    111.608
   2002.938    103.447
   2004.783     98.010
   2005.158     93.024
   2005.341     93.705
   2005.508    104.360
   2005.896     91.212
   2007.154    109.124
   2007.529    103.684
   2008.259    106.633
   2009.369    101.422
   2011.574    100.747
   2012.313     98.028
   2013.409    101.885
   2016.161    103.931
   2017.633    101.895
   2018.548    104.390
   2019.653    102.126
   2021.302    104.397
   2021.311     98.730
   2023.693    102.589
   2024.067     98.283
   2025.899    100.781
   2027.177    106.224
   2029.017    103.508
   2031.771    103.968
   2031.949    107.823
   2033.430    100.345
   2033.802     97.626
   2036.009     95.591
   2039.483    105.120
   2041.514     98.551
   2041.867    107.619
   2042.605    105.127
   2043.713    101.276
   2044.637     97.651
   2046.468    101.509
   2047.208     97.657
   2049.964     96.984
   2052.354     95.629
   2053.635     98.806
   2055.647    103.571
   2056.757     98.360
   2058.590    101.085
   2060.615     97.689
   2062.079    101.093
   2065.202    100.874
   2067.937    113.802
   2068.264    139.419
   2068.795    152.115
   2068.838    124.912
   2068.990    144.861
   2069.065     96.576
   2069.074     91.135
   2069.268     84.335
   2069.812     88.643
   2069.955    114.713
   2071.272     94.314
   2073.475     94.999
   2073.653     98.853
   2075.120    100.444
   2077.328     97.955
   2077.688    102.490
   2078.073     90.930
   2078.801     95.012
   2080.093     90.934
   2081.557     94.565
   2082.472     96.834
   2082.479     91.847
   2084.123     97.971
   2084.681     93.212
   2086.339     90.042
   2086.880     96.164
   2087.060     98.885
   2088.526    100.702
   2089.617    107.959
   2089.640     93.224
   2090.690    126.324
   2090.886    118.616
   2092.732    112.273
   2092.748    102.526
   2093.129     93.459
   2094.429     84.394
   2094.953    101.624
   2094.990     77.368
   2095.376     65.354
   2095.921     69.663
   2096.032    116.135
   2096.391    121.576
   2096.414    107.068
   2097.001     83.720
   2097.142    110.924
   2098.072    103.672
   2099.185     96.647
   2099.546    100.728
   2099.549     98.234
   2100.477     92.569
   2101.399     89.625
   2103.962     95.298
   2103.978     85.097
   2104.169     80.337
   2104.677    107.768
   2104.853    112.755
   2104.869    102.101
   2104.887     90.993
   2106.163     97.117
   2107.640     92.133
   2107.992    101.655
   2109.101     97.577
   2110.208     93.953
   2111.119     98.942
   2113.693     97.134
   2114.437     90.562
   2114.603    102.124
   2116.447     97.594
   2118.091    103.039
   2118.646    100.547
   2119.924    105.537
   2121.862    158.588
   2122.063    147.707
   2122.162    202.340
   2122.533    199.848
   2122.552    187.606
   2122.634    134.560
   2122.665    114.384
   2122.754    175.819
   2123.006    131.614
   2123.019    123.226
   2123.060     96.703
   2123.078     84.689
   2123.153    154.964
   2123.414    105.092
   2123.460     75.395
   2123.474     66.327
   2123.477     64.287
   2123.639     78.796
   2123.834     71.089
   2125.096     86.280
   2126.378     88.550
   2127.292     91.273
   2127.302     85.152
   2128.948     89.236
   2130.970     88.561
   2132.059     96.951
   2132.802     91.286
   2133.908     88.341
   2135.374     90.838
   2136.484     85.400
   2137.394     90.616
   2139.049     89.714
   2140.521     87.677
   2141.432     92.666
   2143.454     91.537
   2144.010     88.138
   2145.473     92.222
   2146.397     88.144
   2147.124     93.360
   2148.776     94.044
   2148.948    126.685
   2148.968     88.377
   2149.904     91.208
   2151.228     85.875
   2151.605     88.426
   2151.608     80.311
   2152.548     95.151
   2153.683     91.442
   2154.440     87.964
   2156.139     91.211
   2158.408     85.647
   2158.596     89.821
   2158.786     87.966
   2160.674     92.141
   2163.131     89.823
   2163.698     87.737
   2165.777     86.578
   2165.965     89.593
   2167.101     83.796
   2168.422     87.275
   2169.369     81.479
   2171.248    114.174
   2171.619    134.580
   2171.630    101.653
   2172.380    118.117
   2172.560    145.015
   2172.583     74.060
   2172.584     71.277
   2172.771     78.234
   2172.775     66.176
   2173.533     59.220
   2173.534     53.655
   2173.534     54.351
   2173.534     55.278
   2173.536     49.481
   2173.721     61.771
   2173.726     45.076
   2174.076    132.030
   2174.263    137.827
   2174.268    121.596
   2174.277     93.539
   2174.281     83.800
   2174.285     71.278
   2174.833    127.625
   2175.026    115.104
   2175.977     96.554
   2176.163    106.988
   2176.920    101.888
   2178.056     93.309
   2178.811     97.251
   2181.077     99.803
   2181.268     96.093
   2182.780     92.151
   2183.725     94.239
   2185.049     89.834
   2185.992     92.617
   2186.372     86.820
   2187.694     90.531
   2188.262     86.357
   2190.151     86.822
   2191.094     91.228
   2191.475     82.880
   2193.553     84.041
   2194.874     88.447
   2196.198     83.810
   2197.520     87.521
   2198.844     83.348
   2199.788     85.899
   2199.975     89.609
   2202.054     87.987
   2203.189     84.509
   2204.324     81.263
   2205.270     77.322
   2205.460     72.685
   2206.023     84.511
   2206.028     69.207
   2206.030     62.482
   2206.221     56.221
   2206.400     88.221
   2206.777     91.004
   2207.153     98.424
   2207.720     95.642
   2208.477     92.859
   2209.800     90.541
   2210.368     87.759
   2213.014     85.441
   2213.202     88.456
   2215.092     85.906
   2215.281     87.529
   2217.548     87.531
   2218.305     84.053
   2220.572     86.373
   2220.759     90.083
   2222.272     87.533
   2222.838     90.316
   2223.973     84.751
   2225.106     87.766
   2225.671     92.172
   2226.806     89.390
   2227.752     85.217
   2229.452     86.145
   2230.396     89.392
   2230.398     84.059
   2231.909     84.523
   2233.419     88.002
   2234.554     84.756
   2235.687     88.467
   2236.822     82.902
   2237.766     87.077
   2239.845     84.991
   2241.732     90.325
   2242.301     84.760
   2243.812     87.775
   2243.813     83.601
   2247.025     82.443
   2247.779     87.777
   2249.481     84.763
   2250.427     81.749
   2253.072     80.359
   2254.394     83.143
   2256.661     85.231
   2256.662     80.361
   2258.363     79.203
   2258.929     82.449
   2261.386     81.059
   2261.574     84.074
   2263.461     92.190
   2263.841     85.698
   2264.781    100.539
   2265.526    131.611
   2265.540     89.177
   2265.721    112.597
   2265.882    201.175
   2265.892    169.871
   2265.898    150.857
   2266.073    194.450
   2266.095    125.582
   2266.249    236.189
   2266.278    144.133
   2266.439    230.624
   2266.454    184.943
   2266.669    105.177
   2266.864     84.308
   2266.867     73.874
   2266.870     65.062
   2267.238     96.134
   2268.384     58.338
   2269.704     66.455
   2270.462     59.962
   2270.650     62.977
   2271.409     53.007
   2272.922     48.138
   2273.113     41.182
   2273.297     57.181
   2273.658    108.891
   2273.681     37.704
   2273.682     33.530
   2273.842    123.963
   2273.865     53.935
   2274.055     50.921
   2274.210    155.267
   2274.406    134.629
   2275.191     42.110
   2276.099    157.818
   2276.105    138.804
   2276.277    190.977
   2276.867    118.399
   2277.243    126.747
   2277.246    114.921
   2277.248    111.443
   2278.006    104.023
   2279.331     97.067
   2280.652    100.082
   2281.599     92.663
   2282.165     95.446
   2284.242    101.707
   2284.433     93.592
   2285.374    106.114
   2285.566     96.143
   2286.513     88.259
   2287.080     88.492
   2288.590     92.202
   2290.292     88.261
   2291.803     91.276
   2293.505     84.785
   2293.882     89.191
   2295.206     86.177
   2297.661     88.033
   2299.173     85.947
   2301.063     86.643
   2302.196     89.426
   2304.273     92.442
   2305.784     95.457
   2307.087    156.210
   2307.098    119.805
   2307.292    104.037
   2307.668    111.226
   2307.839    165.949
   2307.848    140.443
   2308.013    212.789
   2308.228    133.950
   2308.361    307.164
   2308.594    170.587
   2308.609    123.748
   2308.734    323.627
   2308.737    314.816
   2308.763    230.876
   2308.764    228.093
   2308.925    317.135
   2308.957    216.268
   2309.154    190.993
   2309.345    184.964
   2309.354    158.066
   2309.366    118.647
   2309.560    102.647
   2309.565     87.111
   2309.682    311.338
   2309.756     81.082
   2309.899    226.007
   2309.900    221.137
   2309.935    112.618
   2309.946     76.909
   2309.949     69.025
   2310.103    178.240
   2310.517     63.692
   2310.846    218.123
   2310.897     57.663
   2311.841     59.751
   2313.729     66.476
   2314.864     62.071
   2315.807     66.941
   2318.829     69.493
   2319.962     72.276
   2321.852     72.045
   2322.606     74.828
   2324.875     70.655
   2325.253     71.583
   2326.194     82.018
   2326.573     77.612
   2327.709     71.816
   2329.597     74.831
   2329.598     72.049
   2331.487     74.832
   2331.866     71.818
   2332.431     78.311
   2334.509     77.616
   2335.455     73.443
   2336.583     91.994
   2336.773     89.675
   2337.341     83.646
   2337.721     77.850
   2337.723     73.212
   2339.990     72.749
   2341.123     76.228
   2342.257     73.910
   2342.258     71.127
   2343.392     69.273
   2345.092     72.056
   2346.038     67.883
   2347.359     72.289
   2348.305     68.811
   2350.004     72.290
   2351.706     69.972
   2351.893     74.842
   2354.162     70.437
   2354.917     73.452
   2356.996     70.903
   2358.698     66.730
   2359.831     69.513
   2362.099     67.427
   2364.177     68.587
   2365.123     64.182
   2366.823     65.806
   2367.202     61.632
   2368.336     59.546
   2370.414     60.474
   2371.360     58.156
   2373.251     52.824
   2374.765     44.477
   2375.142     48.651
   2377.033     43.087
   2378.736     37.059
   2379.493     32.653
   2380.250     28.712
   2380.252     22.915
   2380.820     17.814
   2381.388     15.263
   2382.329     26.162
   2382.523      9.931
   2383.836     41.235
   2383.845     12.946
   2384.024     44.945
   2384.026     36.366
   2384.027     33.351
   2384.033     15.496
   2384.401     46.568
   2384.976     19.671
   2386.297     26.628
   2387.799     56.773
   2388.176     59.555
   2389.497     62.571
   2390.632     58.861
   2390.826     42.861
   2391.022     21.065
   2391.736    151.613
   2391.773     36.137
   2391.964     29.645
   2392.120    133.295
   2392.147     49.587
   2392.321     97.122
   2392.472    214.917
   2392.479    192.888
   2392.485    173.410
   2392.854    202.859
   2393.408    241.119
   2393.611    198.917
   2393.612    195.903
   2393.992    189.179
   2394.006    143.730
   2394.371    185.933
   2394.758    155.557
   2394.943    169.933
   2395.706    146.050
   2395.710    131.905
   2396.087    135.616
   2396.274    141.645
   2396.279    125.413
   2396.847    122.631
   2397.226    121.008
   2397.794    116.834
   2398.930    108.255
   2399.117    114.052
   2399.876    106.169
   2401.011    101.532
   2402.334     98.750
   2403.091     94.808
   2404.605     86.461
   2406.117     86.230
   2408.198     78.115
   2409.519     84.377
   2409.899     77.189
   2411.408     84.146
   2411.976     81.595
   2412.351     89.248
   2414.243     81.828
   2414.998     84.843
   2417.266     83.685
   2419.154     86.236
   2419.723     81.135
   2422.557     82.528
   2423.880     79.746
   2424.824     81.834
   2425.959     79.052
   2427.659     78.589
   2427.659     80.212
   2428.795     73.720
   2429.738     76.966
   2432.383     80.214
   2434.274     74.882
   2436.351     77.665
   2437.487     71.869
   2439.566     70.015
   2440.509     73.957
   2442.023     68.393
   2442.967     71.176
   2443.347     62.365
   2445.239     56.569
   2445.429     50.772
   2445.431     46.598
   2445.798     79.989
   2445.802     68.627
   2445.810     43.584
   2445.811     40.569
   2445.974    120.104
   2446.159    133.089
   2446.166    110.133
   2446.727    128.452
   2446.926     97.380
   2446.928     90.887
   2447.486    118.481
   2447.673    124.278
   2448.245    109.670
   2448.624    105.497
   2449.193     99.004
   2449.764     86.715
   2449.950     94.599
   2449.952     89.730
   2451.843     83.470
   2452.220     87.412
   2454.297     89.500
   2455.056     81.384
   2455.243     85.790
   2457.701     80.458
   2457.703     76.748
   2461.105     72.576
   2461.106     69.098
   2463.185     66.548
   2464.507     70.954
   2466.019     67.477
   2467.721     63.304
   2469.423     59.363
   2469.989     62.146
   2470.936     53.798
   2471.691     57.045
   2472.072     47.770
   2472.641     39.886
   2472.647     22.959
   2472.833     32.235
   2473.204     53.336
   2473.387     71.654
   2473.389     65.857
   2473.572     83.016
   2474.329     79.075
   2474.331     74.669
   2476.787     75.366
   2478.485     83.019
   2478.664    114.091
   2479.225    130.091
   2479.417    123.134
   2479.441     48.006
   2479.605    125.221
   2479.613    100.874
   2479.988    108.758
   2479.994     90.440
   2480.174    117.338
   2480.176    112.236
   2480.178    105.744
   2480.373     85.570
   2481.130     81.861
   2481.321     77.919
   2484.724     71.196
   2486.048     66.791
   2486.612     75.139
   2487.747     70.038
   2488.504     66.328
   2490.583     63.779
   2492.851     62.620
   2494.930     61.230
   2495.495     66.795
   2497.761     72.130
   2497.762     67.260
   2497.763     64.014
   2499.277     57.986
   2499.654     61.232
   2501.922     57.755
   2503.624     53.814
   2503.814     50.800
   2505.704     48.482
   2507.217     45.700
   2508.726     52.657
   2509.294     48.484
   2510.807     45.702
   2511.941     42.688
   2513.454     38.979
   2513.833     36.428
   2514.778     32.950
   2516.102     29.705
   2516.292     26.227
   2517.049     21.821
   2518.374     16.489
   2521.400      6.751
   2522.719     19.273
   2523.279     39.911
   2523.281     31.795
   2523.834     75.621
   2523.836     70.287
   2524.220     50.578
   2524.407     56.143
   2527.250     28.551
   2528.567     46.870
   2528.753     54.986
   2528.941     60.087
   2529.313     78.869
   2529.506     65.189
   2529.882     71.913
   2531.208     61.479
   2531.583     69.827
   2532.146     81.190
   2532.903     76.321
   2533.088     89.538
   2534.034     86.060
   2534.787     95.567
   2535.352     99.046
   2536.108    101.365
   2537.807    105.076
   2538.182    113.424
   2538.751    108.091
   2539.697    102.294
   2541.777     98.353
   2542.909    101.832
   2544.045     96.731
   2544.987    103.456
   2545.934     97.428
   2547.256    100.211
   2549.713     95.806
   2550.846     99.053
   2551.228     87.691
   2551.982     92.793
   2553.305     90.011
   2554.236    133.141
   2554.431    116.446
   2554.617    122.707
   2554.623    106.939
   2556.706     90.013
   2556.706     91.868
   2557.463     86.999
   2559.166     80.275
   2560.298     84.913
   2561.808     90.479
   2562.943     86.538
   2564.265     86.538
   2565.775     91.177
   2566.710    123.640
   2566.900    119.003
   2566.903    109.032
   2567.087    126.887
   2567.100     84.917
   2567.284    101.612
   2567.661    104.163
   2567.665     89.554
   2568.236     76.338
   2568.424     80.975
   2571.070     79.585
   2572.205     73.093
   2573.148     80.746
   2573.335     87.006
   2573.710     94.427
   2575.036     84.688
   2575.415     80.051
   2577.116     78.197
   2578.059     84.458
   2581.461     81.213
   2581.462     77.967
   2583.727     85.156
   2585.618     81.215
   2587.697     77.970
   2589.208     81.681
   2590.721     77.044
   2591.476     80.059
   2592.419     84.697
   2593.554     80.524
   2595.066     79.597
   2596.766     80.989
   2598.089     78.439
   2599.033     81.918
   2599.979     76.585
   2601.492     73.339
   2601.679     79.136
   2604.703     76.355
   2605.835     81.225
   2606.023     85.167
   2606.400     87.254
   2606.970     76.356
   2609.237     78.908
   2609.427     75.430
   2612.071     79.141
   2612.073     74.272
   2613.206     76.591
   2615.284     77.288
   2617.930     75.666
   2618.117     79.840
   2620.008     74.739
   2622.276     74.277
   2623.220     76.596
   2624.166     73.582
   2625.111     71.496
   2625.488     75.206
   2627.189     73.583
   2629.644     75.903
   2630.778     74.049
   2633.614     71.036
   2634.179     74.746
   2636.258     72.892
   2636.824     75.907
   2639.281     72.894
   2640.038     69.880
   2641.170     74.286
   2644.194     73.824
   2644.762     69.650
   2647.028     73.129
   2647.218     70.347
   2648.728     76.376
   2649.101     90.057
   2649.862     73.131
   2652.130     73.827
   2652.131     69.885
   2653.262     76.147
   2654.208     74.524
   2654.774     77.771
   2656.095     81.017
   2657.038     86.119
   2657.795     83.105
   2658.153    145.249
   2658.350    120.206
   2658.526    158.930
   2658.534    135.278
   2658.552     80.091
   2658.717    153.597
   2658.924     97.482
   2658.935     64.324
   2659.092    162.408
   2659.111    103.975
   2659.120     76.845
   2659.297    113.250
   2659.314     58.759
   2659.505     54.121
   2662.140     84.267
   2662.142     78.006
   2662.328     88.441
   2663.088     74.296
   2664.034     70.123
   2666.302     68.037
   2666.679     71.052
   2668.759     67.575
   2669.325     70.357
   2670.838     65.721
   2673.104     70.127
   2673.105     67.113
   2674.425     73.606
   2675.560     70.592
   2677.260     73.376
   2678.016     70.593
   2679.717     69.435
   2679.905     71.986
   2681.796     68.972
   2682.173     71.987
   2683.874     67.814
   2684.251     72.220
   2685.008     68.510
   2686.329     71.989
   2687.079     91.235
   2687.083     79.641
   2687.265    101.206
   2688.585    107.699
   2689.149    116.743
   2689.346     92.396
   2689.347     88.454
   2689.350     78.483
   2689.541     74.309
   2689.717    112.569
   2689.910    101.903
   2689.921     66.657
   2690.300     62.020
   2692.945     65.731
   2694.833     67.587
   2697.100     69.443
   2697.479     65.733
   2700.125     63.416
   2700.879     69.909
   2701.631     82.199
   2701.822     76.634
   2701.825     65.504
   2702.390     71.301
   2703.338     62.954
   2703.527     59.707
   2705.794     61.100
   2708.063     55.768
   2708.629     59.246
   2708.632     51.826
   2712.597     58.784
   2713.544     53.220
   2716.001     50.902
   2716.569     48.120
   2717.892     45.106
   2718.461     37.454
   2719.219     32.817
   2722.053     31.195
   2722.056     24.471
   2722.999     28.181
   2723.375     34.906
   2723.546     89.630
   2723.732    100.528
   2723.751     39.080
   2723.936     53.688
   2723.939     43.718
   2724.119     72.471
   2724.671    117.919
   2725.422    132.992
   2725.794    151.542
   2725.984    147.137
   2726.358    158.731
   2726.924    161.282
   2727.493    154.789
   2728.064    142.732
   2728.824    129.052
   2729.204    122.791
   2730.340    115.371
   2730.528    118.386
   2731.286    112.126
   2732.610    108.416
   2733.177    106.098
   2733.367    104.011
   2735.450     88.940
   2735.821    112.128
   2735.829     85.925
   2735.992    165.460
   2736.006    122.562
   2736.390    103.780
   2736.569    135.084
   2736.581     96.592
   2738.662     88.477
   2738.663     85.231
   2740.931     85.464
   2741.878     77.581
   2742.443     81.987
   2742.827     63.205
   2743.013     73.639
   2743.393     67.147
   2743.770     70.161
   2743.780     37.930
   2743.963     55.785
   2743.966     46.278
   2744.154     49.756
   2744.334     76.886
   2744.528     61.119
   2744.710     83.611
   2744.716     64.365
   2744.897     90.567
   2745.273     96.133
   2746.599     84.307
   2746.976     88.250
   2747.182     34.222
   2748.300     84.308
   2749.811     87.323
   2751.512     85.237
   2751.702     81.527
   2752.454     91.498
   2753.209     96.832
   2753.396    101.470
   2753.770    113.064
   2753.957    120.484
   2754.119    203.497
   2754.335    118.165
   2754.338    110.050
   2754.529    104.485
   2754.533     92.195
   2755.052    241.062
   2755.069    188.425
   2755.103     82.225
   2755.287     96.137
   2755.290     86.399
   2755.293     77.587
   2755.432    235.497
   2755.433    232.019
   2755.439    210.918
   2755.631    203.034
   2755.650    142.282
   2755.657    122.804
   2755.676     63.211
   2755.681     46.979
   2755.848    115.152
   2755.867     56.255
   2756.997     68.545
   2759.640     73.647
   2762.097     71.562
   2763.040     76.200
   2764.173     79.446
   2765.119     74.114
   2767.387     73.883
   2768.897     77.826
   2769.654     73.188
   2770.976     76.667
   2773.244     75.277
   2774.755     76.669
   2775.512     73.655
   2777.212     72.960
   2778.156     77.134
   2779.479     74.816
   2781.179     76.440
   2781.747     73.194
   2783.257     77.369
   2783.825     73.891
   2786.092     75.747
   2786.282     72.269
   2787.604     74.820
   2787.980     79.226
   2788.357     83.168
   2788.544     88.270
   2788.921     91.980
   2789.108     96.849
   2789.295    104.733
   2789.856    121.661
   2790.034    156.906
   2790.067     53.025
   2790.219    169.196
   2790.229    136.733
   2790.246     83.169
   2790.249     74.590
   2790.257     49.315
   2790.429    101.951
   2790.590    189.834
   2790.595    175.225
   2790.791    151.342
   2791.953     64.388
   2792.141     66.938
   2794.031     65.316
   2794.786     68.795
   2795.921     64.390
   2797.053     69.491
   2797.621     66.941
   2798.564     71.115
   2800.266     66.479
   2800.454     70.421
   2800.646     58.827
   2801.401     63.465
   2803.477     68.335
   2803.668     64.161
   2806.505     55.815
   2806.682     91.061
   2807.241    116.336
   2807.253     79.235
   2807.445     69.033
   2807.451     50.019
   2807.818     85.264
   2808.572     91.526
ENDDATA           1661
ENDSUBENT         1674
SUBENT        C2707003   20220121   20220803   20220802       C212
BIB                  4         11
REACTION  1(16-S-34(P,0),,EN)
          2(16-S-34(P,EL),,WID)
          3(16-S-34(P,0),,J)
          4(16-S-34(P,0),,PTY)
          5(16-S-34(P,0),,J)
          6(16-S-34(P,0),,PTY)
MISC-COL   (MISC) Reduced width = Gc/2Pc
                  where Gc - the partial width,
                        Pc - the penetrability in channel c.
ERR-ANALYS (DATA-ERR) No information on sources of uncertainties.
STATUS     (TABLE) Tab.1 (p.4-5) in Nucl.Phys.A,284,1,1977
ENDBIB              11
COMMON               1          3
DATA-ERR  1
KEV
   3.
ENDCOMMON            3
DATA                 8         59
DATA      1DATA      2DATA-ERR  2MISC       DATA      4DATA      3
DATA      5DATA      6
MEV        EV         EV         KEV        NO-DIM     NO-DIM
NO-DIM     NO-DIM
     1.4673        31.        10.       1.72        -1.        0.5

     1.5100      3728.       380.     174.10        -1.        1.5

     1.5540         8.         4.       2.28        +1.        1.5
        2.5        +1.
     1.6821        11.         5.       1.88        +1.        1.5
        2.5        +1.
     1.7129        26.         7.       0.59        -1.        0.5
        1.5        -1.
     1.7169       300.        20.       2.48        +1.        0.5

     1.8302      2660.       270.      42.36        -1.        0.5

     1.8315       560.        60.       8.88        -1.        1.5

     1.8932        33.        10.       2.73        +1.        0.5

     1.8944        94.        15.       0.49        +1.        0.5

     1.9282       140.        15.       1.70        -1.        1.5

     1.9561         5.         3.       0.34        +1.        1.5
        2.5        +1.
     1.9646         6.         3.       0.40        +1.        1.5
        2.5        +1.
     1.9757        40.        10.       0.43        -1.        0.5

     1.9867        73.        15.       0.77        -1.        1.5

     2.0722        23.         7.       1.13        +1.        1.5
        2.5        +1.
     2.0939         2.         1.       1.08        -1.        2.5
        3.5        -1.
     2.0952         1.         1.       0.54        -1.        2.5
        3.5        -1.
     2.0987       125.        15.       1.01        -1.        0.5

     2.1075        26.         7.       0.09        +1.        0.5

     2.1259        90.        15.       3.83        +1.        1.5

     2.1782        12.         5.       0.45        +1.        1.5
        2.5        +1.
     2.1797       150.        15.       1.03        -1.        1.5

     2.2081       150.        15.       0.96        -1.        0.5

     2.2679        80.        10.       2.38        +1.        1.5

     2.2767       750.        75.       1.85        +1.        0.5

     2.2874         3.         2.       0.08        +1.        1.5
        2.5        +1.
     2.3116       175.        20.       4.72        +1.        2.5

     2.3162         2.         1.       0.05        +1.        1.5
        2.5        +1.
     2.3288         1.         1.       0.02        +1.        1.5
        2.5        +1.
     2.3399         3.         2.       0.07        +1.        1.5
        2.5        +1.
     2.3850         1.         1.       0.23        -1.        2.5
        3.5        -1.
     2.3872       200.        20.       0.42        +1.        0.5

     2.3886      6440.       650.      29.45        -1.        0.5

     2.3960       800.       100.       3.61        -1.        1.5

     2.4495       300.        30.       1.23        -1.        1.5

     2.4752       571.        60.       2.25        -1.        0.5

     2.4817       214.        25.       0.83        -1.        1.5

     2.4891         1.         1.       0.02        +1.        1.5
        2.5        +1.
     2.5003         1.         1.       0.02        +1.        1.5
        2.5        +1.
     2.5268      1700.       170.       2.94        +1.        0.5

     2.5308     12150.      1200.      43.88        -1.        0.5

     2.5320        80.        15.       0.14        +1.        0.5

     2.5417         1.         1.       0.16        -1.        2.5
        3.5        -1.
     2.5608        10.         5.       0.16        +1.        1.5
        2.5        +1.
     2.5732        27.        10.       0.42        +1.        1.5
        2.5        +1.
     2.6132         2.         1.       0.03        +1.        1.5
        2.5        +1.
     2.6613        75.        15.       0.99        +1.        1.5

     2.6654        40.        10.       0.12        -1.        1.5

     2.6900         3.         2.       0.34        -1.        2.5
        3.5        -1.
     2.6921        25.        10.       0.31        +1.        1.5
        2.5        +1.
     2.7051         2.         1.       0.22        -1.        2.5
        3.5        -1.
     2.7284      3500.       350.       9.48        -1.        1.5

     2.7394        40.        10.       0.46        +1.        2.5

     2.7482       292.        30.       0.77        -1.        0.5

     2.7567         1.         1.       0.10        -1.        2.5
        3.5        -1.
     2.7588        95.        15.       1.05        +1.        2.5

     2.7932        57.        10.       0.59        +1.        0.5

     2.8109       200.        20.       0.49        -1.        1.5

ENDDATA            122
ENDSUBENT          142
ENDENTRY             3
