ENTRY            C0684   20220730   20230623   20230623       C223
SUBENT        C0684001   20220730   20230623   20230623       C223
BIB                 10         19
TITLE      Isospin dependence of the nuclear level width in the
           compound nucleus 30P
AUTHOR     (M.Kildir)
REFERENCE  (J,NP/A,340,117,1980)
           #doi:10.1016/0375-9474(80)90326-7
           (T,KILDIR,1974)
INSTITUTE  (1USAROC)
FACILITY   (VDGT,1USAROC)
SAMPLE     (14-SI-29,ENR=0.953) SiO2 targets, enriched to 95.3%
           in 29Si, evaporated onto formvar foil and supported
           by carbon backing.
DETECTOR   (SIBAR)
LEVEL-PROP (13-AL-26,LVL-NUMB=0.,SPIN=5.,PARITY=1.)
           (13-AL-26,LVL-NUMB=1.,SPIN=0.,PARITY=1.)
           (13-AL-26,LVL-NUMB=2.,SPIN=3.,PARITY=1.)
ERR-ANALYS No information on uncertainties.
HISTORY    (20000804C) VM
           (20220730A) BP: Updated entry, added doi and subentry
                       3, digitized thesis data.
ENDBIB              19
NOCOMMON             0          0
ENDSUBENT           22
SUBENT        C0684002   20220730   20230623   20230623       C223
BIB                  2          3
REACTION   (14-SI-29(P,A)13-AL-26,PAR,DA,,AV/REL)
STATUS     (DEP,C0684003)
           (TABLE) Table VI-1, page 103 of T,KILDIR,1974.
ENDBIB               3
COMMON               2          3
EN-MIN     EN-MAX
MEV        MEV
       13.5       15.5
ENDCOMMON            3
DATA                 3         10
LVL-NUMB   ANG        DATA
NO-DIM     ADEG       ARB-UNITS
        0.         90.      1449.
        0.        110.      1332.
        0.        130.      1033.
        0.        165.       961.
        1.        110.       232.
        1.        130.       240.
        1.        165.       562.
        2.         90.      1115.
        2.        110.      1378.
        2.        130.      1372.
ENDDATA             12
ENDSUBENT           24
SUBENT        C0684003   20220730   20230623   20230623       C223
BIB                  3          4
REACTION   (14-SI-29(P,A)13-AL-26,PAR,DA,,REL)
STATUS     (CURVE) Figs. IV-9, IV-10, IV-11, IV-12, IV-13, pages
           47-51 of T,KILDIR,1974.
HISTORY    (20220629C) BP
ENDBIB               4
NOCOMMON             0          0
DATA                 4        800
LVL-NUMB   ANG        EN         DATA
NO-DIM     ADEG       MEV        ARB-UNITS
        0.        90.0     13.514   2310.102
        0.        90.0     13.529   2385.132
        0.        90.0     13.554   2777.835
        0.        90.0     13.578   2504.044
        0.        90.0     13.601   1859.232
        0.        90.0     13.619   1782.654
        0.        90.0     13.650   2076.579
        0.        90.0     13.668   1954.569
        0.        90.0     13.686   1787.128
        0.        90.0     13.719   1709.861
        0.        90.0     13.747   1390.466
        0.        90.0     13.772   1199.966
        0.        90.0     13.788   1290.139
        0.        90.0     13.817   1205.472
        0.        90.0     13.847   1234.383
        0.        90.0     13.874   1505.765
        0.        90.0     13.893   1489.761
        0.        90.0     13.922   1344.519
        0.        90.0     13.941   1502.667
        0.        90.0     13.963   1357.770
        0.        90.0     13.988   1227.844
        0.        90.0     14.028   1013.939
        0.        90.0     14.043   1013.251
        0.        90.0     14.069    996.902
        0.        90.0     14.092   1094.304
        0.        90.0     14.118   1176.390
        0.        90.0     14.145   1197.901
        0.        90.0     14.171   1242.127
        0.        90.0     14.197   1309.069
        0.        90.0     14.215   1164.343
        0.        90.0     14.237   1102.736
        0.        90.0     14.271   1161.762
        0.        90.0     14.294   1251.592
        0.        90.0     14.317   1364.137
        0.        90.0     14.336   1370.848
        0.        90.0     14.373   1384.271
        0.        90.0     14.391   1337.980
        0.        90.0     14.421   1276.028
        0.        90.0     14.447   1229.393
        0.        90.0     14.468   1160.213
        0.        90.0     14.484   1189.812
        0.        90.0     14.514   1218.723
        0.        90.0     14.544   1285.493
        0.        90.0     14.574   1435.553
        0.        90.0     14.592   1298.400
        0.        90.0     14.625   1198.417
        0.        90.0     14.637   1266.047
        0.        90.0     14.670   1279.642
        0.        90.0     14.689   1362.072
        0.        90.0     14.715   1270.005
        0.        90.0     14.741   1261.229
        0.        90.0     14.763   1267.768
        0.        90.0     14.801   1394.769
        0.        90.0     14.830   1272.242
        0.        90.0     14.845   1279.126
        0.        90.0     14.864   1270.694
        0.        90.0     14.898   1435.725
        0.        90.0     14.921   1396.834
        0.        90.0     14.946   1297.195
        0.        90.0     14.975   1114.094
        0.        90.0     15.005   1150.576
        0.        90.0     15.020   1112.029
        0.        90.0     15.046   1110.824
        0.        90.0     15.067   1026.501
        0.        90.0     15.101    941.662
        0.        90.0     15.119    978.661
        0.        90.0     15.153   1022.543
        0.        90.0     15.172   1006.539
        0.        90.0     15.198   1028.050
        0.        90.0     15.224    958.699
        0.        90.0     15.246    912.235
        0.        90.0     15.275    842.712
        0.        90.0     15.301    879.367
        0.        90.0     15.331    862.846
        0.        90.0     15.350    869.558
        0.        90.0     15.376    853.209
        0.        90.0     15.398    897.608
        0.        90.0     15.428    903.803
        0.        90.0     15.450    895.199
        0.        90.0     15.480    780.244
        0.       110.0     13.489   3244.094
        0.       110.0     13.521   3275.591
        0.       110.0     13.548   3472.441
        0.       110.0     13.567   3062.992
        0.       110.0     13.589   2314.961
        0.       110.0     13.613   2566.929
        0.       110.0     13.636   2590.551
        0.       110.0     13.663   2448.819
        0.       110.0     13.686   1716.535
        0.       110.0     13.709   1346.457
        0.       110.0     13.736   1267.717
        0.       110.0     13.763   1496.063
        0.       110.0     13.783   1897.638
        0.       110.0     13.825   1905.512
        0.       110.0     13.837   1629.921
        0.       110.0     13.860   1362.205
        0.       110.0     13.895   1283.465
        0.       110.0     13.910    992.126
        0.       110.0     13.941   1141.732
        0.       110.0     13.968   1251.969
        0.       110.0     13.991   1149.606
        0.       110.0     14.011    976.378
        0.       110.0     14.038    952.756
        0.       110.0     14.073    952.756
        0.       110.0     14.119    897.638
        0.       110.0     14.139   1062.992
        0.       110.0     14.166   1283.465
        0.       110.0     14.197   1637.795
        0.       110.0     14.247   1283.465
        0.       110.0     14.274   1078.740
        0.       110.0     14.290   1000.000
        0.       110.0     14.324    905.512
        0.       110.0     14.344   1000.000
        0.       110.0     14.379   1007.874
        0.       110.0     14.406    976.378
        0.       110.0     14.437    968.504
        0.       110.0     14.468    952.756
        0.       110.0     14.499    889.764
        0.       110.0     14.514    921.260
        0.       110.0     14.549    850.394
        0.       110.0     14.572    881.890
        0.       110.0     14.596   1007.874
        0.       110.0     14.646   1204.724
        0.       110.0     14.670   1204.724
        0.       110.0     14.724   1535.433
        0.       110.0     14.748   1535.433
        0.       110.0     14.771   1440.945
        0.       110.0     14.798   1385.827
        0.       110.0     14.829   1299.213
        0.       110.0     14.844   1157.480
        0.       110.0     14.867    960.630
        0.       110.0     14.894   1007.874
        0.       110.0     14.929   1299.213
        0.       110.0     14.945   1425.197
        0.       110.0     14.968   1559.055
        0.       110.0     14.992   1527.559
        0.       110.0     15.011   1606.299
        0.       110.0     15.046   1598.425
        0.       110.0     15.073   1314.961
        0.       110.0     15.104   1212.598
        0.       110.0     15.119   1141.732
        0.       110.0     15.139   1125.984
        0.       110.0     15.162   1055.118
        0.       110.0     15.193    976.378
        0.       110.0     15.212   1023.622
        0.       110.0     15.235   1031.496
        0.       110.0     15.270   1094.488
        0.       110.0     15.301   1070.866
        0.       110.0     15.321    874.016
        0.       110.0     15.344    818.898
        0.       110.0     15.375    755.906
        0.       110.0     15.413    763.780
        0.       110.0     15.468    740.157
        0.       110.0     15.483    787.402
        0.       130.0     13.510   1793.651
        0.       130.0     13.518   1630.952
        0.       130.0     13.541   1666.667
        0.       130.0     13.568   1876.984
        0.       130.0     13.595   1662.698
        0.       130.0     13.618   1591.270
        0.       130.0     13.642   1865.079
        0.       130.0     13.672   1365.079
        0.       130.0     13.687   1079.365
        0.       130.0     13.714   1059.524
        0.       130.0     13.738   1273.810
        0.       130.0     13.772   1023.810
        0.       130.0     13.792   1440.476
        0.       130.0     13.820   1861.111
        0.       130.0     13.851   1440.476
        0.       130.0     13.870   1456.349
        0.       130.0     13.893   1436.508
        0.       130.0     13.916   1250.000
        0.       130.0     13.947    956.349
        0.       130.0     13.974   1095.238
        0.       130.0     13.997   1234.127
        0.       130.0     14.024   1000.000
        0.       130.0     14.044   1130.952
        0.       130.0     14.079   1126.984
        0.       130.0     14.098   1027.778
        0.       130.0     14.121    904.762
        0.       130.0     14.152    761.905
        0.       130.0     14.175    825.397
        0.       130.0     14.195   1063.492
        0.       130.0     14.203   1190.476
        0.       130.0     14.230   1202.381
        0.       130.0     14.257    912.698
        0.       130.0     14.272    785.714
        0.       130.0     14.310    702.381
        0.       130.0     14.330    654.762
        0.       130.0     14.349    591.270
        0.       130.0     14.380    654.762
        0.       130.0     14.407    702.381
        0.       130.0     14.430    662.698
        0.       130.0     14.446    662.698
        0.       130.0     14.469    753.968
        0.       130.0     14.501    801.587
        0.       130.0     14.520    904.762
        0.       130.0     14.543    876.984
        0.       130.0     14.574    892.857
        0.       130.0     14.605    801.587
        0.       130.0     14.624    761.905
        0.       130.0     14.652   1011.905
        0.       130.0     14.676   1182.540
        0.       130.0     14.707   1293.651
        0.       130.0     14.726   1333.333
        0.       130.0     14.757   1250.000
        0.       130.0     14.772   1111.111
        0.       130.0     14.803   1067.460
        0.       130.0     14.823    988.095
        0.       130.0     14.853    916.667
        0.       130.0     14.877    912.698
        0.       130.0     14.896    908.730
        0.       130.0     14.927    988.095
        0.       130.0     14.943    940.476
        0.       130.0     14.978    956.349
        0.       130.0     14.997    888.889
        0.       130.0     15.016    928.571
        0.       130.0     15.040    932.540
        0.       130.0     15.075   1007.937
        0.       130.0     15.094    797.619
        0.       130.0     15.125    960.317
        0.       130.0     15.144    746.032
        0.       130.0     15.171    750.000
        0.       130.0     15.198    753.968
        0.       130.0     15.229    853.175
        0.       130.0     15.245    948.413
        0.       130.0     15.276    916.667
        0.       130.0     15.303   1035.714
        0.       130.0     15.330    932.540
        0.       130.0     15.353    829.365
        0.       130.0     15.380    734.127
        0.       130.0     15.392    738.095
        0.       130.0     15.419    738.095
        0.       130.0     15.446    678.571
        0.       130.0     15.469    757.937
        0.       130.0     15.493    904.762
        0.       165.0     13.520   1082.182
        0.       165.0     13.541    910.580
        0.       165.0     13.549    615.744
        0.       165.0     13.549    525.594
        0.       165.0     13.578    542.690
        0.       165.0     13.602    658.032
        0.       165.0     13.630    544.000
        0.       165.0     13.658    520.119
        0.       165.0     13.683    602.679
        0.       165.0     13.706   1045.839
        0.       165.0     13.735   1136.695
        0.       165.0     13.755    448.778
        0.       165.0     13.780    236.300
        0.       165.0     13.812    548.535
        0.       165.0     13.832    844.076
        0.       165.0     13.852    754.429
        0.       165.0     13.888    952.028
        0.       165.0     13.908   1509.825
        0.       165.0     13.936   1387.598
        0.       165.0     13.957   1117.651
        0.       165.0     13.985   1421.589
        0.       165.0     14.017   1651.868
        0.       165.0     14.033   1422.798
        0.       165.0     14.049   1390.419
        0.       165.0     14.078   1440.297
        0.       165.0     14.114   1187.144
        0.       165.0     14.131   1130.179
        0.       165.0     14.159    630.960
        0.       165.0     14.184    475.850
        0.       165.0     14.204    361.617
        0.       165.0     14.236    387.010
        0.       165.0     14.264    518.843
        0.       165.0     14.277    584.709
        0.       165.0     14.313    536.443
        0.       165.0     14.333    414.015
        0.       165.0     14.357    570.333
        0.       165.0     14.386    620.212
        0.       165.0     14.406    465.001
        0.       165.0     14.430    236.132
        0.       165.0     14.451    228.441
        0.       165.0     14.487    532.580
        0.       165.0     14.511    861.004
        0.       165.0     14.535    894.391
        0.       165.0     14.555    730.985
        0.       165.0     14.575    870.812
        0.       165.0     14.612    863.523
        0.       165.0     14.628    814.754
        0.       165.0     14.656    684.331
        0.       165.0     14.681    635.763
        0.       165.0     14.709    751.205
        0.       165.0     14.733    620.682
        0.       165.0     14.769    646.175
        0.       165.0     14.793    974.599
        0.       165.0     14.809   1204.476
        0.       165.0     14.846   1238.164
        0.       165.0     14.862   1066.462
        0.       165.0     14.890   1476.942
        0.       165.0     14.914   1961.080
        0.       165.0     14.925   2592.434
        0.       165.0     14.933   2715.568
        0.       165.0     14.965   2626.224
        0.       165.0     14.978   2356.075
        0.       165.0     15.002   2086.229
        0.       165.0     15.035   1996.885
        0.       165.0     15.067   1973.104
        0.       165.0     15.088   1506.466
        0.       165.0     15.121   1064.716
        0.       165.0     15.133    761.785
        0.       165.0     15.157    729.608
        0.       165.0     15.181    762.994
        0.       165.0     15.206    779.990
        0.       165.0     15.230    682.249
        0.       165.0     15.262    740.423
        0.       165.0     15.282    937.619
        0.       165.0     15.310   1307.121
        0.       165.0     15.338   1414.367
        0.       165.0     15.355   1308.229
        0.       165.0     15.391   1186.204
        0.       165.0     15.416    932.748
        0.       165.0     15.436    695.583
        0.       165.0     15.460    524.083
        0.       165.0     15.481    598.346
        0.       165.0     15.509    771.156
        1.       110.0     13.512    271.141
        1.       110.0     13.523    259.060
        1.       110.0     13.549    259.060
        1.       110.0     13.575    311.409
        1.       110.0     13.597    305.369
        1.       110.0     13.619    158.389
        1.       110.0     13.649    120.134
        1.       110.0     13.668    156.376
        1.       110.0     13.690    162.416
        1.       110.0     13.724    271.141
        1.       110.0     13.753    267.114
        1.       110.0     13.776    198.658
        1.       110.0     13.798    116.107
        1.       110.0     13.812     83.893
        1.       110.0     13.842     71.812
        1.       110.0     13.869    244.966
        1.       110.0     13.895    444.295
        1.       110.0     13.925    438.255
        1.       110.0     13.947    420.134
        1.       110.0     13.974    494.631
        1.       110.0     13.996    540.940
        1.       110.0     14.026    504.698
        1.       110.0     14.043    234.899
        1.       110.0     14.066    228.859
        1.       110.0     14.099    251.007
        1.       110.0     14.129    110.067
        1.       110.0     14.151     79.866
        1.       110.0     14.181    118.121
        1.       110.0     14.199    104.027
        1.       110.0     14.222    120.134
        1.       110.0     14.251     95.973
        1.       110.0     14.277     67.785
        1.       110.0     14.299     57.718
        1.       110.0     14.329     33.557
        1.       110.0     14.348     29.530
        1.       110.0     14.370     79.866
        1.       110.0     14.396     47.651
        1.       110.0     14.422     87.919
        1.       110.0     14.449    172.483
        1.       110.0     14.471    162.416
        1.       110.0     14.493    162.416
        1.       110.0     14.523    208.725
        1.       110.0     14.557    333.557
        1.       110.0     14.579    289.262
        1.       110.0     14.609    295.302
        1.       110.0     14.632    391.946
        1.       110.0     14.658    490.604
        1.       110.0     14.685    581.208
        1.       110.0     14.703    629.530
        1.       110.0     14.726    603.356
        1.       110.0     14.748    587.248
        1.       110.0     14.774    504.698
        1.       110.0     14.799    446.309
        1.       110.0     14.821    393.960
        1.       110.0     14.851    253.020
        1.       110.0     14.869    196.644
        1.       110.0     14.891    144.295
        1.       110.0     14.921     79.866
        1.       110.0     14.950     39.597
        1.       110.0     14.976     13.423
        1.       110.0     15.003     75.839
        1.       110.0     15.032    102.013
        1.       110.0     15.047    138.255
        1.       110.0     15.074    174.497
        1.       110.0     15.100    299.329
        1.       110.0     15.122    329.530
        1.       110.0     15.130    303.356
        1.       110.0     15.152    267.114
        1.       110.0     15.178    309.396
        1.       110.0     15.212    321.477
        1.       110.0     15.219    287.248
        1.       110.0     15.249    265.101
        1.       110.0     15.278    251.007
        1.       110.0     15.297    238.926
        1.       110.0     15.330    214.765
        1.       110.0     15.356    126.174
        1.       110.0     15.386     61.745
        1.       110.0     15.408     61.745
        1.       110.0     15.434     53.691
        1.       110.0     15.453     89.933
        1.       110.0     15.490    110.067
        1.       130.0     13.502    264.889
        1.       130.0     13.517    280.179
        1.       130.0     13.543    380.982
        1.       130.0     13.569    309.268
        1.       130.0     13.594    155.113
        1.       130.0     13.620    159.733
        1.       130.0     13.643    211.676
        1.       130.0     13.677    242.262
        1.       130.0     13.695    193.437
        1.       130.0     13.725    272.872
        1.       130.0     13.752    364.515
        1.       130.0     13.774    334.016
        1.       130.0     13.796    317.257
        1.       130.0     13.822    366.152
        1.       130.0     13.848    343.292
        1.       130.0     13.871    349.434
        1.       130.0     13.897    349.475
        1.       130.0     13.923    390.736
        1.       130.0     13.945    398.405
        1.       130.0     13.971    387.759
        1.       130.0     13.993    279.398
        1.       130.0     14.019    308.446
        1.       130.0     14.045    371.082
        1.       130.0     14.067    308.522
        1.       130.0     14.089    223.062
        1.       130.0     14.115    119.288
        1.       130.0     14.141    157.496
        1.       130.0     14.167    201.811
        1.       130.0     14.193    186.585
        1.       130.0     14.215    153.032
        1.       130.0     14.246    296.588
        1.       130.0     14.276    298.162
        1.       130.0     14.298    308.883
        1.       130.0     14.324    264.650
        1.       130.0     14.339    241.773
        1.       130.0     14.376    250.991
        1.       130.0     14.391    327.349
        1.       130.0     14.422    481.592
        1.       130.0     14.452    547.287
        1.       130.0     14.465    286.245
        1.       130.0     14.502    229.816
        1.       130.0     14.521    235.952
        1.       130.0     14.539    210.027
        1.       130.0     14.573    283.361
        1.       130.0     14.596    327.670
        1.       130.0     14.625    240.695
        1.       130.0     14.651    259.056
        1.       130.0     14.670    219.391
        1.       130.0     14.695    179.738
        1.       130.0     14.721    161.458
        1.       130.0     14.755    175.251
        1.       130.0     14.781    184.452
        1.       130.0     14.799    160.054
        1.       130.0     14.818    105.122
        1.       130.0     14.844    118.903
        1.       130.0     14.870    147.951
        1.       130.0     14.896    140.358
        1.       130.0     14.922    157.193
        1.       130.0     14.948    201.508
        1.       130.0     14.971    149.635
        1.       130.0     14.996    108.455
        1.       130.0     15.026    160.409
        1.       130.0     15.045    151.278
        1.       130.0     15.071     93.305
        1.       130.0     15.096     41.438
        1.       130.0     15.123    133.080
        1.       130.0     15.149    194.189
        1.       130.0     15.180    310.264
        1.       130.0     15.202    365.260
        1.       130.0     15.229    488.964
        1.       130.0     15.251    397.397
        1.       130.0     15.276    336.370
        1.       130.0     15.302    189.848
        1.       130.0     15.328    157.828
        1.       130.0     15.346     90.682
        1.       130.0     15.372     83.090
        1.       130.0     15.398    106.031
        1.       130.0     15.424    130.499
        1.       130.0     15.447    162.595
        1.       130.0     15.476    167.221
        1.       165.0     13.515    578.981
        1.       165.0     13.527    678.736
        1.       165.0     13.555    689.127
        1.       165.0     13.584    415.745
        1.       165.0     13.605    321.463
        1.       165.0     13.620    451.152
        1.       165.0     13.649    551.155
        1.       165.0     13.665    521.532
        1.       165.0     13.705    447.475
        1.       165.0     13.730    288.535
        1.       165.0     13.738    199.046
        1.       165.0     13.774    164.755
        1.       165.0     13.798    424.008
        1.       165.0     13.827    434.398
        1.       165.0     13.851    579.146
        1.       165.0     13.879    549.709
        1.       165.0     13.899    375.772
        1.       165.0     13.920    391.017
        1.       165.0     13.952    605.588
        1.       165.0     13.976    735.400
        1.       165.0     13.996    531.592
        1.       165.0     14.017    278.000
        1.       165.0     14.045    208.735
        1.       165.0     14.073    149.427
        1.       165.0     14.090    139.718
        1.       165.0     14.126    155.211
        1.       165.0     14.146    220.241
        1.       165.0     14.182    335.304
        1.       165.0     14.198    345.509
        1.       165.0     14.235    425.722
        1.       165.0     14.258    670.040
        1.       165.0     14.279    774.898
        1.       165.0     14.303    755.355
        1.       165.0     14.331    611.413
        1.       165.0     14.348    522.049
        1.       165.0     14.376    477.676
        1.       165.0     14.392    433.118
        1.       165.0     14.421    378.788
        1.       165.0     14.449    573.383
        1.       165.0     14.477    723.171
        1.       165.0     14.497    723.481
        1.       165.0     14.529    723.977
        1.       165.0     14.557    823.980
        1.       165.0     14.589   1078.378
        1.       165.0     14.601   1163.198
        1.       165.0     14.625   1163.570
        1.       165.0     14.637   1253.369
        1.       165.0     14.649   1447.716
        1.       165.0     14.674   1224.056
        1.       165.0     14.711    960.754
        1.       165.0     14.727    791.734
        1.       165.0     14.759    842.014
        1.       165.0     14.775   1031.444
        1.       165.0     14.803   1290.759
        1.       165.0     14.827   1251.303
        1.       165.0     14.847   1281.484
        1.       165.0     14.888   1287.082
        1.       165.0     14.900   1108.043
        1.       165.0     14.929    964.101
        1.       165.0     14.957    879.900
        1.       165.0     14.974    651.138
        1.       165.0     15.003    288.143
        1.       165.0     15.023    213.775
        1.       165.0     15.051    273.951
        1.       165.0     15.083    398.909
        1.       165.0     15.103    488.831
        1.       165.0     15.119    528.907
        1.       165.0     15.152    474.639
        1.       165.0     15.168    405.189
        1.       165.0     15.204    470.467
        1.       165.0     15.224    530.518
        1.       165.0     15.253    446.318
        1.       165.0     15.273    352.036
        1.       165.0     15.293    327.454
        1.       165.0     15.322    268.146
        1.       165.0     15.342    258.499
        1.       165.0     15.378    303.863
        1.       165.0     15.403    289.299
        1.       165.0     15.431    289.733
        1.       165.0     15.459    270.253
        1.       165.0     15.475    394.963
        1.       165.0     15.491    355.383
        2.        90.0     13.524   2005.385
        2.        90.0     13.552   1769.195
        2.        90.0     13.574   1708.015
        2.        90.0     13.590   1783.825
        2.        90.0     13.621   2057.110
        2.        90.0     13.646   2596.656
        2.        90.0     13.675   2459.319
        2.        90.0     13.691   1242.313
        2.        90.0     13.724   1211.376
        2.        90.0     13.749   1591.235
        2.        90.0     13.773   1271.457
        2.        90.0     13.798   1674.129
        2.        90.0     13.819   1445.658
        2.        90.0     13.841   1468.123
        2.        90.0     13.864   1513.401
        2.        90.0     13.895   1102.258
        2.        90.0     13.921   1003.000
        2.        90.0     13.938   1390.579
        2.        90.0     13.967   1367.304
        2.        90.0     13.999   1100.639
        2.        90.0     14.018   1016.704
        2.        90.0     14.039    902.296
        2.        90.0     14.062   1008.406
        2.        90.0     14.090   1418.624
        2.        90.0     14.116   1395.407
        2.        90.0     14.150   1470.928
        2.        90.0     14.165   1379.447
        2.        90.0     14.197   1089.970
        2.        90.0     14.219   1082.019
        2.        90.0     14.242   1218.546
        2.        90.0     14.259    929.300
        2.        90.0     14.297    966.743
        2.        90.0     14.307    867.716
        2.        90.0     14.341    859.591
        2.        90.0     14.364   1064.556
        2.        90.0     14.387   1147.854
        2.        90.0     14.422   1383.061
        2.        90.0     14.449   1679.217
        2.        90.0     14.476   1762.458
        2.        90.0     14.487   1701.451
        2.        90.0     14.521   1761.764
        2.        90.0     14.541   1426.836
        2.        90.0     14.570   1297.103
        2.        90.0     14.592   1182.694
        2.        90.0     14.618   1121.456
        2.        90.0     14.640   1174.338
        2.        90.0     14.663   1158.783
        2.        90.0     14.693   1234.362
        2.        90.0     14.715   1294.848
        2.        90.0     14.749   1294.327
        2.        90.0     14.761   1362.591
        2.        90.0     14.791   1552.231
        2.        90.0     14.815   1749.592
        2.        90.0     14.837   1787.265
        2.        90.0     14.871   1824.765
        2.        90.0     14.900   1679.824
        2.        90.0     14.921   1413.333
        2.        90.0     14.942   1215.279
        2.        90.0     14.974    948.614
        2.        90.0     14.997    940.663
        2.        90.0     15.008   1054.552
        2.        90.0     15.043   1221.322
        2.        90.0     15.068   1106.855
        2.        90.0     15.090    962.030
        2.        90.0     15.119    824.693
        2.        90.0     15.152    755.736
        2.        90.0     15.170    664.197
        2.        90.0     15.197    777.854
        2.        90.0     15.216    868.814
        2.        90.0     15.242    792.368
        2.        90.0     15.267    708.318
        2.        90.0     15.292    540.623
        2.        90.0     15.319    585.843
        2.        90.0     15.344    433.355
        2.        90.0     15.363    539.524
        2.        90.0     15.397    554.212
        2.        90.0     15.416    629.964
        2.        90.0     15.442    659.976
        2.        90.0     15.471    583.472
        2.        90.0     15.490    507.142
        2.       110.0     13.513   2266.537
        2.       110.0     13.533   1986.381
        2.       110.0     13.564   2118.677
        2.       110.0     13.583   2297.665
        2.       110.0     13.608   2702.335
        2.       110.0     13.635   2717.899
        2.       110.0     13.660   2391.051
        2.       110.0     13.677   1877.432
        2.       110.0     13.710   1519.455
        2.       110.0     13.734   1184.825
        2.       110.0     13.757   1208.171
        2.       110.0     13.787   1433.852
        2.       110.0     13.818   1612.840
        2.       110.0     13.842   1449.416
        2.       110.0     13.861   1348.249
        2.       110.0     13.897   1262.646
        2.       110.0     13.920   1239.300
        2.       110.0     13.947   1254.864
        2.       110.0     13.970   1324.903
        2.       110.0     13.994   1184.825
        2.       110.0     14.017   1145.914
        2.       110.0     14.036   1223.735
        2.       110.0     14.070   1589.494
        2.       110.0     14.092   1892.996
        2.       110.0     14.120   1675.097
        2.       110.0     14.137   1278.210
        2.       110.0     14.168   1184.825
        2.       110.0     14.199   1161.479
        2.       110.0     14.215   1068.093
        2.       110.0     14.238   1107.004
        2.       110.0     14.266   1021.401
        2.       110.0     14.293    951.362
        2.       110.0     14.312   1005.837
        2.       110.0     14.338   1254.864
        2.       110.0     14.369   1457.198
        2.       110.0     14.396   1402.724
        2.       110.0     14.423   1387.160
        2.       110.0     14.447   1379.377
        2.       110.0     14.458   1332.685
        2.       110.0     14.494   1239.300
        2.       110.0     14.521   1254.864
        2.       110.0     14.537   1130.350
        2.       110.0     14.568   1060.311
        2.       110.0     14.587   1107.004
        2.       110.0     14.644   1348.249
        2.       110.0     14.672   1254.864
        2.       110.0     14.695   1184.825
        2.       110.0     14.718   1223.735
        2.       110.0     14.741   1324.903
        2.       110.0     14.771   1612.840
        2.       110.0     14.802   1589.494
        2.       110.0     14.822   1573.930
        2.       110.0     14.845   1480.545
        2.       110.0     14.869   1488.327
        2.       110.0     14.903   1558.366
        2.       110.0     14.919   1511.673
        2.       110.0     14.939   1239.300
        2.       110.0     14.963   1177.043
        2.       110.0     14.987   1052.529
        2.       110.0     15.017   1060.311
        2.       110.0     15.041   1099.222
        2.       110.0     15.068   1052.529
        2.       110.0     15.096    834.630
        2.       110.0     15.127    857.977
        2.       110.0     15.143    803.502
        2.       110.0     15.170    655.642
        2.       110.0     15.194    554.475
        2.       110.0     15.209    601.167
        2.       110.0     15.244    608.949
        2.       110.0     15.263    710.117
        2.       110.0     15.302    717.899
        2.       110.0     15.329    717.899
        2.       110.0     15.341    647.860
        2.       110.0     15.372    601.167
        2.       110.0     15.399    570.039
        2.       110.0     15.422    577.821
        2.       110.0     15.449    601.167
        2.       110.0     15.473    593.385
        2.       130.0     13.505   2007.716
        2.       130.0     13.539   2364.269
        2.       130.0     13.569   2498.677
        2.       130.0     13.585   2466.681
        2.       130.0     13.616   2426.497
        2.       130.0     13.643   2346.696
        2.       130.0     13.671   2306.576
        2.       130.0     13.684   1846.098
        2.       130.0     13.715   1813.850
        2.       130.0     13.743   1694.369
        2.       130.0     13.763   1368.678
        2.       130.0     13.789   1741.229
        2.       130.0     13.816   1629.684
        2.       130.0     13.832   1645.305
        2.       130.0     13.860   1438.527
        2.       130.0     13.895   1295.112
        2.       130.0     13.915   1191.629
        2.       130.0     13.943   1072.148
        2.       130.0     13.966    920.986
        2.       130.0     13.993    999.906
        2.       130.0     14.023   1277.162
        2.       130.0     14.050   1435.441
        2.       130.0     14.064   1776.438
        2.       130.0     14.094   2069.566
        2.       130.0     14.115   1656.579
        2.       130.0     14.148   1132.298
        2.       130.0     14.179   1092.114
        2.       130.0     14.199   1036.247
        2.       130.0     14.213   1202.652
        2.       130.0     14.236   1392.738
        2.       130.0     14.263   1487.529
        2.       130.0     14.294   1320.369
        2.       130.0     14.316   1645.368
        2.       130.0     14.338   1962.430
        2.       130.0     14.369   2088.902
        2.       130.0     14.392   2009.164
        2.       130.0     14.425   1730.900
        2.       130.0     14.442   1317.976
        2.       130.0     14.469   1182.623
        2.       130.0     14.501   1071.015
        2.       130.0     14.516   1126.315
        2.       130.0     14.543   1078.258
        2.       130.0     14.566   1220.728
        2.       130.0     14.592   1426.623
        2.       130.0     14.623   1465.800
        2.       130.0     14.646   1576.526
        2.       130.0     14.666   1425.427
        2.       130.0     14.694   1218.650
        2.       130.0     14.718   1083.360
        2.       130.0     14.741   1043.302
        2.       130.0     14.780   1018.864
        2.       130.0     14.796    978.932
        2.       130.0     14.811   1034.232
        2.       130.0     14.850   1041.538
        2.       130.0     14.877    985.545
        2.       130.0     14.900   1112.143
        2.       130.0     14.923   1214.934
        2.       130.0     14.954   1190.622
        2.       130.0     14.966   1111.073
        2.       130.0     14.997    880.425
        2.       130.0     15.029    784.689
        2.       130.0     15.056    720.760
        2.       130.0     15.072    752.252
        2.       130.0     15.091    736.065
        2.       130.0     15.120   1179.977
        2.       130.0     15.148    949.392
        2.       130.0     15.179   1067.928
        2.       130.0     15.198   1067.614
        2.       130.0     15.217   1138.723
        2.       130.0     15.241   1003.433
        2.       130.0     15.269    868.080
        2.       130.0     15.292    986.742
        2.       130.0     15.315    891.132
        2.       130.0     15.343    835.139
        2.       130.0     15.366    842.697
        2.       130.0     15.389    826.447
        2.       130.0     15.424    810.008
        2.       130.0     15.451    888.927
        2.       130.0     15.467    817.251
        2.       130.0     15.494    658.090
ENDDATA            802
ENDSUBENT          811
ENDENTRY             3
