ENTRY            F0441   20031008   20040322
SUBENT        F0441001   20031008   20040322
BIB                  9         19
TITLE      Elastic scattering of alpha particles by O16.
AUTHOR     (M.TAKEDA, S.KATO, T.YAMAZAKI)
INSTITUTE  (2JPNOSA)
REFERENCE  (J,JPJ,30,56,1971)
SAMPLE     Natural oxygen gas was contained in the gas cell at a
           pressure of about 3-cm Hg. The window of the gas cell
           was 9 micro meters thick aluminium foil.
METHOD     (EXTB)
           The beam energy was determined by comparing the
           excitation curve of carbon-alpha particle elastic
           scattering at laboratory angle of 175 degrees with one
           measured by the tandem Van de Graaff Accelerator at
           University of Minnesota. In the course of measurements
           there was monitored the beam energy by proton resonance
           signal from a probe in the analyzer magnet.
DETECTOR   (SIBAR) Two or three silicon surface barrier detectors
           placed in 10-degree intervals.
FACILITY   (CYCLO) 110-cm variable energy cyclotron.
HISTORY    (20030828C)
ENDBIB              19
COMMON               1          3
EN-RSL
MEV
 0.05
ENDCOMMON            3
ENDSUBENT           26
SUBENT        F0441002   20031008   20040322
BIB                  3          4
REACTION   (8-O-16(A,EL)8-O-16,,DA)
ERR-ANALYS (EN-ERR-DIG) Digitizing error
           (ERR-DIG)   Digitizing error
STATUS     (CURVE)FIG.3
ENDBIB               4
COMMON               2          3
EN-ERR-DIG ERR-DIG
MEV        MB/SR
 0.003      1.15
ENDCOMMON            3
DATA                 3         75
ANG        EN         DATA
ADEG       MEV        MB/SR
 175.00     22.002     330.26
 175.00     22.103     339.57
 175.00     22.218     320.05
 175.00     22.332     282.87
 175.00     22.534     196.41
 175.00     22.722     102.52
 175.00     22.786     69.052
 175.00     22.855     16.059
 175.00     22.942     47.679
 175.00     23.043     94.178
 175.00     23.258     163.00
 175.00     23.368     183.46
 175.00     23.671     146.30
 175.00     23.721     119.34
 175.00     23.781     84.011
 175.00     23.969     37.536
 175.00     24.230     72.890
 175.00     24.358     68.252
 175.00     24.468     51.525
 175.60     20.014     108.80
 175.60     20.087     163.67
 175.60     20.146     187.85
 175.60     20.201     192.50
 175.60     20.252     174.84
 175.60     20.311     162.76
 175.60     20.371     131.15
 175.60     20.440     128.37
 175.60     20.485     187.88
 175.60     20.545     359.89
 175.60     20.604     511.45
 175.60     20.663     596.07
 175.60     20.718     661.16
 175.60     20.782     650.01
 175.60     20.837     612.82
 175.60     20.874     583.07
 175.60     20.948     548.67
 175.60     20.998     525.43
 175.60     21.026     509.63
 175.60     21.067     505.91
 175.60     21.076     484.53
 175.60     21.117     505.92
 175.60     21.145     491.97
 175.60     21.213     500.35
 175.60     21.255     569.16
 175.60     21.314     620.30
 175.60     21.360     685.39
 175.60     21.424     682.60
 175.60     21.479     646.35
 175.60     21.543     563.60
 175.60     21.598     500.38
 175.60     21.663     452.96
 175.60     21.704     390.67
 175.60     21.759     360.92
 175.60     21.828     349.77
 175.60     21.878     346.06
 175.60     21.956     354.43
 175.60     21.997     352.57
 175.60     22.052     359.09
 175.60     22.103     366.53
 175.60     22.162     361.89
 175.60     22.236     356.31
 175.60     22.318     330.29
 175.60     22.396     302.40
 175.80     23.744     111.90
 175.80     23.882     54.265
 175.80     23.923     50.550
 175.80     24.019     45.909
 175.80     24.065     50.561
 175.80     24.125     58.005
 175.80     24.180     64.518
 175.80     24.280     82.192
 175.80     24.432     59.890
 175.80     24.560     44.094
 175.80     24.688     23.649
 175.80     24.785     25.516
ENDDATA             77
ENDSUBENT           90
SUBENT        F0441003   20031008   20040322
BIB                  3          6
REACTION   (8-O-16(A,EL)8-O-16,,DA)
ERR-ANALYS (ANG-ERR-D)  Digitizing error
           (ERR-DIG)   Digitizing error
           (DATA-ERR1)  Absolute error
           (DATA-ERR2)  Relative error
STATUS     (CURVE) FIG.4
ENDBIB               6
COMMON               4          3
ANG-ERR-D  ERR-DIG    DATA-ERR1  DATA-ERR2
ADEG       PER-CENT   PER-CENT   PER-CENT
 0.2        0.2        5.         3.
ENDCOMMON            3
DATA                 3        653
EN         ANG        DATA
MEV        ADEG       MB/SR
 20.400     10.682     8844.4
 20.400     13.772     3153.3
 20.400     15.788     1950.4
 20.400     19.099     1011.0
 20.400     21.089     464.85
 20.400     24.001     181.67
 20.400     26.546     77.830
 20.400     28.576     56.629
 20.400     30.833     64.742
 20.400     33.815     56.993
 20.400     36.607     48.433
 20.400     38.443     32.607
 20.400     40.820     17.266
 20.400     42.983     6.7008
 20.400     45.937     4.2931
 20.400     48.444     10.157
 20.400     50.747     19.860
 20.400     53.216     30.328
 20.400     55.849     35.414
 20.400     57.147     30.962
 20.400     60.124     25.942
 20.400     61.974     20.257
 20.400     64.366     12.797
 20.400     66.927     6.5873
 20.400     68.728     2.9445
 20.400     70.656    0.65883
 20.400     73.333     1.2881
 20.400     75.864     4.0138
 20.400     78.712     6.5314
 20.400     80.227     8.0142
 20.400     82.296     9.1625
 20.400     85.102     9.1593
 20.400     87.339     8.3537
 20.400     89.014     7.5125
 20.400     91.440     6.9982
 20.400     93.472     5.2378
 20.400     94.945     3.9762
 20.400     97.168     3.0828
 20.400     99.015     2.3568
 20.400     100.85     1.5867
 20.400     104.94     1.1706
 20.400     106.77    0.76073
 20.400     108.61    0.50855
 20.400     111.61    0.54942
 20.400     113.15    0.90051
 20.400     114.88     1.5728
 20.400     116.41     2.1454
 20.400     118.50     3.4668
 20.400     120.79     5.6020
 20.400     122.49     6.9714
 20.400     124.75     7.5324
 20.400     126.60     6.4471
 20.400     127.90     5.7574
 20.400     130.06     2.2188
 20.400     130.98     1.8077
 20.400     132.44     1.1261
 20.400     133.87    0.51055
 20.400     134.56    0.28210
 20.400     136.48    0.49617
 20.400     138.83     1.6360
 20.400     140.23     4.4269
 20.400     141.40     7.8977
 20.400     142.94     12.408
 20.400     145.21     17.286
 20.400     146.50     14.692
 20.400     148.21     17.775
 20.400     149.90     19.342
 20.400     151.77     20.175
 20.400     153.26     18.016
 20.400     155.86     14.267
 20.400     157.68     8.1076
 20.400     159.11     3.6758
 20.400     160.36     1.9058
 20.400     162.19     1.2473
 20.400     164.03     7.0342
 20.400     165.22     15.401
 20.400     166.96     31.198
 20.400     168.12     46.323
 20.400     169.48     86.828
 20.400     170.63     113.53
 20.400     171.77     144.32
 20.400     173.47     165.01
 20.400     174.79     184.72
 20.400     176.29     199.60
 20.700     10.670     12671.
 20.700     13.612     7061.1
 20.700     15.800     3670.9
 20.700     18.172     1856.0
 20.700     20.713     756.33
 20.700     23.055     270.06
 20.700     26.174     132.78
 20.700     28.795     136.49
 20.700     30.494     162.38
 20.700     32.933     176.46
 20.700     35.156     137.33
 20.700     37.536     74.957
 20.700     39.693     27.329
 20.700     42.357     5.3646
 20.700     45.389     8.3702
 20.700     47.545     25.826
 20.700     49.279     45.995
 20.700     51.732     58.251
 20.700     54.355     61.139
 20.700     57.153     55.833
 20.700     59.004     44.371
 20.700     61.403     30.256
 20.700     63.981     18.978
 20.700     66.007     13.215
 20.700     68.420     10.574
 20.700     70.295     11.177
 20.700     72.727     11.096
 20.700     75.357     12.660
 20.700     77.606     13.196
 20.700     79.658     12.392
 20.700     82.280     12.738
 20.700     84.158     13.940
 20.700     86.965     14.033
 20.700     88.653     14.730
 20.700     90.893     13.929
 20.700     92.755     12.546
 20.700     94.615     11.144
 20.700     97.386     7.4417
 20.700     99.038     5.1460
 20.700     100.89     4.3841
 20.700     103.33     4.6337
 20.700     104.85     5.9100
 20.700     107.32     9.0942
 20.700     109.21     11.280
 20.700     110.53     12.432
 20.700     112.59     12.959
 20.700     114.64     12.777
 20.700     116.32     11.670
 20.700     118.55     10.365
 20.700     120.27     15.088
 20.700     121.97     18.076
 20.700     123.30     23.216
 20.700     124.83     31.524
 20.700     126.90     38.560
 20.700     129.33     37.753
 20.700     132.88     34.957
 20.700     136.00     17.920
 20.700     137.64     10.933
 20.700     139.46     6.2656
 20.700     141.35     7.5585
 20.700     142.54     16.819
 20.700     144.86     36.394
 20.700     145.82     51.527
 20.700     147.35     71.442
 20.700     148.69     102.56
 20.700     150.75     114.61
 20.700     154.70     133.50
 20.700     156.18     113.74
 20.700     157.65     83.153
 20.700     159.48     53.263
 20.700     160.54     26.013
 20.700     162.33     10.098
 20.700     163.71     21.852
 20.700     165.66     59.490
 20.700     166.67     134.24
 20.700     168.40     239.07
 20.700     169.75     365.38
 20.700     169.76     411.25
 20.700     171.10     554.56
 20.700     172.43     707.33
 20.700     174.69     877.32
 20.700     174.89     987.43
 20.700     176.58     1058.3
 21.370     10.417     11734.
 21.370     14.090     5773.5
 21.370     16.275     3110.0
 21.370     18.633     1437.7
 21.370     21.338     506.87
 21.370     24.011     126.25
 21.370     25.998     60.854
 21.370     28.681     118.53
 21.370     30.767     158.65
 21.370     33.572     155.32
 21.370     35.600     114.37
 21.370     37.955     51.426
 21.370     40.835     15.998
 21.370     43.781     9.7647
 21.370     45.927     24.257
 21.370     48.051     48.580
 21.370     51.271     72.658
 21.370     52.964     80.063
 21.370     55.204     76.240
 21.370     57.055     62.311
 21.370     59.464     48.844
 21.370     62.057     37.238
 21.370     64.285     31.291
 21.370     66.335     28.980
 21.370     68.958     29.994
 21.370     71.199     28.962
 21.370     73.240     24.337
 21.370     75.462     19.078
 21.370     77.115     13.856
 21.370     79.329     10.062
 21.370     82.684     8.8753
 21.370     84.379     9.9858
 21.370     86.450     11.471
 21.370     88.518     12.728
 21.370     91.131     11.870
 21.370     92.793     9.5674
 21.370     94.820     6.9001
 21.370     96.668     5.4469
 21.370     99.106     5.8370
 21.370     101.20     8.3168
 21.370     103.10     11.526
 21.370     105.18     14.797
 21.370     106.88     17.847
 21.370     109.50     17.594
 21.370     110.99     15.850
 21.370     112.84     12.775
 21.370     114.67     8.5954
 21.370     116.68     5.2470
 21.370     119.14     6.7359
 21.370     120.52     14.164
 21.370     121.50     22.874
 21.370     123.60     35.922
 21.370     125.50     50.129
 21.370     127.39     59.623
 21.370     129.08     63.456
 21.370     131.14     61.700
 21.370     132.25     54.062
 21.370     134.65     40.366
 21.370     136.65     22.202
 21.370     137.69     8.9339
 21.370     139.46     3.1282
 21.370     141.78     7.5053
 21.370     142.82     22.184
 21.370     144.95     46.643
 21.370     145.94     80.186
 21.370     147.28     105.86
 21.370     148.98     134.03
 21.370     150.12     146.68
 21.370     152.92     147.65
 21.370     153.47     133.03
 21.370     154.95     111.02
 21.370     158.78     39.134
 21.370     160.35     12.261
 21.370     161.75     4.4145
 21.370     161.92     3.8685
 21.370     163.79     24.552
 21.370     164.65     81.106
 21.370     166.22     171.73
 21.370     167.40     303.54
 21.370     168.56     463.68
 21.370     170.28     651.59
 21.370     172.17     836.56
 21.370     173.68     995.05
 21.370     175.01     1127.4
 21.370     177.64     1331.5
 22.110     10.885     10743.
 22.110     13.814     5438.4
 22.110     16.185     2890.4
 22.110     18.729     1309.4
 22.110     21.064     471.77
 22.110     23.587     173.54
 22.110     26.754     149.93
 22.110     28.841     203.45
 22.110     30.719     219.54
 22.110     33.697     188.37
 22.110     35.519     111.88
 22.110     38.415     40.587
 22.110     40.302     6.7666
 22.110     43.110     6.8587
 22.110     45.124     30.933
 22.110     47.620     60.638
 22.110     49.522     84.013
 22.110     52.146     88.781
 22.110     54.753     77.783
 22.110     57.160     60.143
 22.110     59.176     38.557
 22.110     61.169     19.521
 22.110     63.545     10.892
 22.110     66.903     9.8785
 22.110     68.422     12.506
 22.110     70.314     15.613
 22.110     72.575     18.311
 22.110     75.381     18.304
 22.110     77.431     16.954
 22.110     79.474     14.549
 22.110     81.880     11.017
 22.110     83.909     8.1151
 22.110     86.110     5.1306
 22.110     88.865     3.0050
 22.110     90.101     1.3806
 22.110     92.283    0.71370
 22.110     94.403     1.3799
 22.110     96.734     3.3780
 22.110     98.475     6.1784
 22.110     100.96     10.468
 22.110     102.67     14.605
 22.110     104.94     17.611
 22.110     106.82     19.404
 22.110     108.86     17.120
 22.110     110.35     15.106
 22.110     111.45     12.522
 22.110     114.21     7.8615
 22.110     116.61     5.2177
 22.110     118.31     6.2485
 22.110     120.42     11.349
 22.110     121.78     18.576
 22.110     123.51     29.985
 22.110     125.79     43.914
 22.110     127.30     51.151
 22.110     128.99     54.060
 22.110     131.43     58.332
 22.110     132.91     48.352
 22.110     136.04     28.914
 22.110     138.04     16.820
 22.110     141.14     6.7710
 22.110     142.69     12.045
 22.110     144.26     26.027
 22.110     146.18     45.344
 22.110     147.71     60.683
 22.110     149.23     82.921
 22.110     150.74     95.253
 22.110     152.25     102.08
 22.110     154.87     102.05
 22.110     155.60     86.977
 22.110     157.26     67.259
 22.110     158.89     37.531
 22.110     159.77     22.764
 22.110     161.55     8.8528
 22.110     163.39     6.4310
 22.110     165.01     22.907
 22.110     166.79     63.106
 22.110     167.98     120.34
 22.110     169.34     205.35
 22.110     170.31     292.56
 22.110     172.02     391.52
 22.110     172.97     478.79
 22.110     175.23     569.37
 22.110     175.62     631.83
 22.910     10.521     10019.
 22.910     12.936     4631.9
 22.910     14.388     2330.8
 22.910     16.817     1003.9
 22.910     18.697     386.02
 22.910     20.198     147.36
 22.910     23.256     129.82
 22.910     25.305     159.51
 22.910     28.526     163.07
 22.910     30.271     131.91
 22.910     32.286     68.782
 22.910     34.007     22.312
 22.910     35.793     5.0432
 22.910     38.708     9.7526
 22.910     41.941     26.687
 22.910     44.302     47.397
 22.910     46.544     57.419
 22.910     49.586     55.072
 22.910     51.897     45.511
 22.910     53.497     28.730
 22.910     55.742     11.943
 22.910     57.428     4.7240
 22.910     58.418     1.3110
 22.910     60.475    0.18967
 22.910     62.784    0.45036
 22.910     65.282     1.0770
 22.910     67.776    0.92218
 22.910     69.444    0.39994
 22.910     71.952    0.11104
 22.910     74.420    0.31251
 22.910     76.671     1.0279
 22.910     79.541     2.5469
 22.910     81.784     3.0637
 22.910     83.808     4.3372
 22.910     86.232     5.4439
 22.910     87.923     5.9716
 22.910     90.195     6.1034
 22.910     92.384     9.8855
 22.910     95.181     12.857
 22.910     97.228     16.022
 22.910     99.104     17.953
 22.910     101.19     17.963
 22.910     103.28     17.470
 22.910     105.00     16.398
 22.910     106.78     11.191
 22.910     108.35     8.3736
 22.910     110.31     5.6345
 22.910     112.58     5.9664
 22.910     114.62     7.7582
 22.910     116.28     10.016
 22.910     118.68     14.485
 22.910     121.10     18.572
 22.910     122.41     20.370
 22.910     124.10     22.663
 22.910     125.81     22.040
 22.910     127.54     19.968
 22.910     129.47     16.617
 22.910     131.22     13.159
 22.910     132.38     11.505
 22.910     134.14     8.2511
 22.910     134.95     6.3500
 22.910     136.67     6.0028
 22.910     138.19     5.9206
 22.910     139.11     6.9698
 22.910     140.96     8.6241
 22.910     143.20     10.597
 22.910     144.33     11.622
 22.910     147.53     12.936
 22.910     149.45     11.637
 22.910     150.41     10.393
 22.910     151.98     7.9434
 22.910     153.71     6.8971
 22.910     155.09     5.1605
 22.910     156.63     4.6094
 22.910     158.50     5.2759
 22.910     160.31     8.6663
 22.910     161.76     12.619
 22.910     163.22     17.736
 22.910     165.42     26.200
 22.910     166.51     34.545
 22.910     168.55     45.239
 22.910     170.02     56.770
 22.910     171.51     68.761
 22.910     172.62     77.034
 22.910     174.50     87.551
 23.040     8.6287     9636.1
 23.040     10.270     4626.3
 23.040     12.289     2236.9
 23.040     14.334     927.37
 23.040     15.463     318.26
 23.040     18.096     118.00
 23.040     20.008     107.79
 23.040     22.397     169.90
 23.040     24.889     144.74
 23.040     27.785     107.23
 23.040     29.216     57.977
 23.040     31.311     17.920
 23.040     34.321     6.7380
 23.040     36.854     13.950
 23.040     39.001     29.906
 23.040     41.396     45.519
 23.040     44.206     56.178
 23.040     46.491     53.149
 23.040     49.002     40.772
 23.040     50.613     23.313
 23.040     52.596     14.000
 23.040     54.917     3.4843
 23.040     57.128     1.6614
 23.040     59.460     1.1884
 23.040     61.586     2.9096
 23.040     64.456     2.4964
 23.040     66.385     2.0678
 23.040     68.515    0.51821
 23.040     69.964    0.81851E-01
 23.040     73.354    0.89503
 23.040     77.163     2.5212
 23.040     79.205     3.2671
 23.040     81.094     3.4325
 23.040     83.770     3.0284
 23.040     86.951     3.9254
 23.040     88.232     5.1936
 23.040     90.446     7.4746
 23.040     92.461     11.455
 23.040     94.490     16.031
 23.040     96.176     18.188
 23.040     98.627     19.930
 23.040     100.92     18.208
 23.040     102.66     14.977
 23.040     104.21     11.978
 23.040     105.99     7.8775
 23.040     107.75     5.7133
 23.040     110.38     6.7140
 23.040     112.39     10.582
 23.040     114.06     12.875
 23.040     116.11     16.224
 23.040     117.96     21.770
 23.040     119.07     25.935
 23.040     121.35     24.709
 23.040     123.81     25.603
 23.040     124.97     23.222
 23.040     127.11     16.843
 23.040     128.28     13.283
 23.040     129.89     7.7563
 23.040     132.37     7.3900
 23.040     133.34     6.3823
 23.040     135.36     9.2493
 23.040     136.65     11.900
 23.040     138.68     16.308
 23.040     140.74     19.705
 23.040     142.03     23.641
 23.040     144.12     23.324
 23.040     145.25     25.195
 23.040     146.60     21.161
 23.040     148.70     20.160
 23.040     149.70     15.033
 23.040     150.93     8.7163
 23.040     152.58     3.9571
 23.040     152.72     5.3079
 23.040     155.25     3.5158
 23.040     157.20     8.0263
 23.040     158.79     16.156
 23.040     160.40     27.882
 23.040     162.42     42.139
 23.040     164.26     60.640
 23.040     166.11     79.128
 23.040     167.21     98.993
 23.040     168.69     119.60
 23.040     170.75     138.58
 23.040     171.31     151.79
 23.450     8.3921     4967.6
 23.450     10.206     2508.1
 23.450     12.606     1132.7
 23.450     14.440     504.39
 23.450     16.652     224.62
 23.450     19.365     155.27
 23.450     21.627     170.10
 23.450     24.674     157.63
 23.450     26.406     134.31
 23.450     29.511     85.393
 23.450     32.510     31.946
 23.450     35.419     6.2897
 23.450     40.466     10.119
 23.450     41.625     29.851
 23.450     44.218     44.455
 23.450     46.855     50.082
 23.450     49.149     44.501
 23.450     50.528     32.068
 23.450     54.220     18.237
 23.450     56.625     8.0095
 23.450     58.687     2.7745
 23.450     60.106     1.5444
 23.450     62.183     1.6453
 23.450     63.771     3.5212
 23.450     64.649     5.5043
 23.450     67.107     5.7829
 23.450     69.994     4.4387
 23.450     71.574     2.9624
 23.450     72.743     2.4373
 23.450     75.591    0.70925
 23.450     77.096    0.76608
 23.450     78.593     2.9462
 23.450     80.785     5.0442
 23.450     81.326     6.0483
 23.450     84.365     5.8856
 23.450     85.299     6.4457
 23.450     87.598     5.5698
 23.450     89.357     3.9861
 23.450     91.473     3.3031
 23.450     94.113     3.6441
 23.450     95.558     5.7773
 23.450     97.547     10.755
 23.450     99.203     14.934
 23.450     100.71     16.357
 23.450     103.36     16.948
 23.450     104.92     12.472
 23.450     107.08     7.8178
 23.450     107.52     5.4394
 23.450     109.26     4.2327
 23.450     111.49     1.6859
 23.450     113.80     1.3586
 23.450     115.15     4.0360
 23.450     117.10     9.4586
 23.450     118.71     18.488
 23.450     119.97     28.107
 23.450     121.44     36.653
 23.450     123.53     35.659
 23.450     125.61     38.791
 23.450     127.14     35.439
 23.450     128.51     27.003
 23.450     130.09     18.275
 23.450     132.91     6.1574
 23.450     135.53     2.2715
 23.450     137.59    0.81478
 23.450     138.59     2.0328
 23.450     139.17     6.0801
 23.450     140.50     20.912
 23.450     141.38     31.350
 23.450     143.05     40.883
 23.450     144.17     47.017
 23.450     146.45     44.486
 23.450     148.15     46.404
 23.450     150.27     38.722
 23.450     151.64     29.097
 23.450     153.62     16.657
 23.450     154.91     6.3170
 23.450     155.94     3.7966
 23.450     157.78     1.6441
 23.450     158.78     3.9890
 23.450     159.49     17.759
 23.450     160.12     40.462
 23.450     161.93     73.247
 23.450     162.81     109.04
 23.450     164.45     165.79
 23.450     166.70     203.07
 23.450     167.80     246.95
 23.450     169.11     280.07
 23.450     170.05     304.59
 24.280     38.254     111.59
 24.280     40.685     44.658
 24.280     42.521     63.657
 24.280     54.922     13.575
 24.280     66.921     3.2799
 24.280     69.290     1.8963
 24.280     72.138    0.60358
 24.280     75.805    0.41523
 24.280     80.411     2.8634
 24.280     81.900     3.3837
 24.280     84.370     3.2929
 24.280     87.030     3.2046
 24.280     89.091     3.7351
 24.280     89.787     5.3972
 24.280     92.556     8.4802
 24.280     94.758     13.139
 24.280     95.863     15.962
 24.280     97.921     18.865
 24.280     100.18     20.514
 24.280     102.47     18.884
 24.280     104.21     16.216
 24.280     106.14     13.357
 24.280     107.89     10.193
 24.280     109.85     6.9610
 24.280     111.91     8.3419
 24.280     113.38     10.939
 24.280     115.60     15.167
 24.280     117.07     20.168
 24.280     119.31     25.198
 24.280     121.00     27.588
 24.280     122.50     30.204
 24.280     124.60     27.230
 24.280     128.28     17.356
 24.280     129.65     13.903
 24.280     131.21     10.757
 24.280     133.15     8.4993
 24.280     135.42     8.5629
 24.280     136.71     10.476
 24.280     138.18     14.322
 24.280     139.65     18.912
 24.280     141.32     23.956
 24.280     142.63     26.592
 24.280     143.75     28.314
 24.280     146.22     28.330
 24.280     147.75     26.439
 24.280     149.11     21.625
 24.280     151.05     16.618
 24.280     152.47     9.7401
 24.280     154.65     5.6704
 24.280     155.67     3.6371
 24.280     157.52     4.8367
 24.280     158.91     10.311
 24.280     159.93     21.084
 24.280     161.56     32.890
 24.280     163.39     49.216
 24.280     164.85     69.181
 24.280     166.32     90.094
 24.280     167.99     111.00
 24.280     170.05     132.09
 24.280     171.17     145.61
 24.280     173.44     152.94
ENDDATA            655
ENDSUBENT          670
ENDENTRY             3
