ENTRY            F0464   20030516   20030930
SUBENT        F0464001   20030516   20030930
BIB                  6          8
TITLE      Neutron and gamma rays from the alpha-particle
           bombardment of 9Be, 10B, 11B, 13C and 18O
AUTHOR     (T.W.BONNER,A.A.KRAUS,J.B.MARION,J.P.SCHIFFER)
INSTITUTE  (1USARIC)
REFERENCE  (J,PR,102,1348,195606)
FACILITY   (VDG)
HISTORY    (19860820C)
           (20030503U) Reaction code changed in sub.012,013
ENDBIB               8
NOCOMMON
ENDSUBENT           11
SUBENT        F0464002   20010206   20030430
BIB                  5         11
REACTION   (4-BE-9(A,N)6-C-12,,DA)
SAMPLE     Target was about 10 keV thick to 2 MeV alphas
DETECTOR   (TELES,LONGC,BF3) The neutron detecter used was
           modified long-counter with paraffin moderator 5 inches
           in diam. and 5 inches long surrounding a BF3 counter
           which was 1 inch in diam. and extended to the front
           surface of the paraffin.
ERR-ANALYS (EN-ERR) Digitizing error
           (DATA-ERR) Digitizing error
           (DATA-ERR1) Estimated error in cross sections.
STATUS     (CURVE) Fig. 1
ENDBIB              11
COMMON               3          3
EN-ERR     DATA-ERR1  DATA-ERR
MEV        PER-CENT   MB/SR
 0.02        25.00     0.3
ENDCOMMON            3
DATA                 4        178
EN         ANG-MIN    ANG-MAX    DATA
MEV        ADEG       ADEG       MB/SR
  1.379      70.00      110.0     0.2128E-01
  1.444      70.00      110.0     0.7472
  1.508      70.00      110.0      1.707
  1.552     0.0000E+00  20.00     0.9730E-01
  1.595     0.0000E+00  20.00     0.8482
  1.595      70.00      110.0      2.682
  1.660     0.0000E+00  20.00      1.808
  1.681      70.00      110.0      4.573
  1.724     0.0000E+00  20.00      2.768
  1.745      70.00      110.0      5.533
  1.766     0.0000E+00  20.00      6.464
  1.787     0.0000E+00  20.00      9.228
  1.787      70.00      110.0      8.311
  1.807     0.0000E+00  20.00      12.91
  1.851      70.00      110.0      11.10
  1.870     0.0000E+00  20.00      18.45
  1.872      70.00      110.0      12.95
  1.881      70.00      110.0      16.62
  1.890     0.0000E+00  20.00      23.05
  1.892      70.00      110.0      18.47
  1.910     0.0000E+00  20.00      26.73
  1.931     0.0000E+00  20.00      28.58
  1.933      70.00      110.0      23.08
  1.954      70.00      110.0      24.93
  1.975     0.0000E+00  20.00      27.69
  1.998      70.00      110.0      22.21
  1.999      70.00      110.0      21.29
  2.021      70.00      110.0      20.39
  2.022      70.00      110.0      17.64
  2.042     0.0000E+00  20.00      23.15
  2.064     0.0000E+00  20.00      20.42
  2.088      70.00      110.0      15.85
  2.108     0.0000E+00  20.00      18.61
  2.130     0.0000E+00  20.00      17.71
  2.131      70.00      110.0      14.04
  2.153      70.00      110.0      14.06
  2.195     0.0000E+00  20.00      16.84
  2.218      70.00      110.0      14.10
  2.239     0.0000E+00  20.00      15.95
  2.283      70.00      110.0      13.23
  2.304     0.0000E+00  20.00      15.99
  2.349      70.00      110.0      11.44
  2.369     0.0000E+00  20.00      15.12
  2.413     0.0000E+00  20.00      14.23
  2.414      70.00      110.0      10.56
  2.457      70.00      110.0      10.59
  2.499     0.0000E+00  20.00      15.20
  2.522      70.00      110.0      11.55
  2.542     0.0000E+00  20.00      16.15
  2.585     0.0000E+00  20.00      17.10
  2.586      70.00      110.0      12.51
  2.627     0.0000E+00  20.00      18.96
  2.630      70.00      110.0      12.54
  2.649     0.0000E+00  20.00      18.97
  2.673      70.00      110.0      12.57
  2.692     0.0000E+00  20.00      19.00
  2.717      70.00      110.0      10.77
  2.736     0.0000E+00  20.00      18.11
  2.761      70.00      110.0      9.878
  2.780     0.0000E+00  20.00      16.31
  2.801      70.00      110.0      17.24
  2.845     0.0000E+00  20.00      15.44
  2.848      70.00      110.0      8.102
  2.891      70.00      110.0      8.131
  2.910     0.0000E+00  20.00      14.56
  2.956      70.00      110.0      8.175
  2.976     0.0000E+00  20.00      13.69
  3.040     0.0000E+00  20.00      13.73
  3.043      70.00      110.0      8.232
  3.105     0.0000E+00  20.00      13.78
  3.108      70.00      110.0      8.276
  3.149     0.0000E+00  20.00      13.80
  3.172      70.00      110.0      8.319
  3.235     0.0000E+00  20.00      14.78
  3.259      70.00      110.0      9.293
  3.278     0.0000E+00  20.00      15.72
  3.345      70.00      110.0      10.27
  3.364     0.0000E+00  20.00      15.78
  3.429     0.0000E+00  20.00      17.66
  3.431      70.00      110.0      11.24
  3.493     0.0000E+00  20.00      17.70
  3.496      70.00      110.0      12.20
  3.517      70.00      110.0      11.30
  3.558     0.0000E+00  20.00      19.58
  3.601     0.0000E+00  20.00      20.52
  3.625      70.00      110.0      13.20
  3.647      70.00      110.0      13.22
  3.665     0.0000E+00  20.00      22.40
  3.711      70.00      110.0      15.10
  3.729     0.0000E+00  20.00      25.19
  3.750     0.0000E+00  20.00      26.13
  3.754      70.00      110.0      16.04
  3.793     0.0000E+00  20.00      27.99
  3.819      70.00      110.0      16.08
  3.835     0.0000E+00  20.00      30.77
  3.840      70.00      110.0      17.02
  3.856     0.0000E+00  20.00      33.53
  3.861      70.00      110.0      17.95
  3.876     0.0000E+00  20.00      35.38
  3.885     0.0000E+00  20.00      38.13
  3.904      70.00      110.0      19.81
  3.915      70.00      110.0      20.74
  3.918     0.0000E+00  20.00      39.99
  3.924      70.00      110.0      21.66
  3.925     0.0000E+00  20.00      48.24
  3.925      70.00      110.0      24.41
  3.925      70.00      110.0      25.32
  3.935     0.0000E+00  20.00      53.76
  3.942     0.0000E+00  20.00      61.09
  3.959     0.0000E+00  20.00      69.34
  3.969     0.0000E+00  20.00      76.70
  3.971     0.0000E+00  20.00      72.12
  3.971     0.0000E+00  20.00      74.88
  3.987      70.00      110.0      28.12
  3.994     0.0000E+00  20.00      68.46
  3.995     0.0000E+00  20.00      64.80
  3.995     0.0000E+00  20.00      66.63
  4.010      70.00      110.0      25.38
  4.011      70.00      110.0      23.55
  4.011      70.00      110.0      21.72
  4.061     0.0000E+00  20.00      63.92
  4.076      70.00      110.0      21.76
  4.098      70.00      110.0      22.69
  4.104     0.0000E+00  20.00      64.87
  4.141      70.00      110.0      21.80
  4.147     0.0000E+00  20.00      65.82
  4.206      70.00      110.0      22.76
  4.211     0.0000E+00  20.00      66.78
  4.270      70.00      110.0      23.72
  4.276     0.0000E+00  20.00      66.82
  4.298     0.0000E+00  20.00      66.83
  4.304     0.0000E+00  20.00      66.89
  4.335      70.00      110.0      23.76
  4.341     0.0000E+00  20.00      65.95
  4.386     0.0000E+00  20.00      63.22
  4.399      70.00      110.0      25.64
  4.408     0.0000E+00  20.00      60.49
  4.443      70.00      110.0      26.59
  4.507      70.00      110.0      28.46
  4.560     0.0000E+00  20.00      58.76
  4.572      70.00      110.0      28.51
  4.615      70.00      110.0      29.45
  4.626     0.0000E+00  20.00      57.88
  4.658      70.00      110.0      28.57
  4.733     0.0000E+00  20.00      59.79
  4.742     0.0000E+00  20.00      61.62
  4.745      70.00      110.0      28.62
  4.788      70.00      110.0      28.65
  4.838     0.0000E+00  20.00      68.11
  4.853      70.00      110.0      27.78
  4.902     0.0000E+00  20.00      72.74
  4.911     0.0000E+00  20.00      74.57
  4.918      70.00      110.0      27.82
  4.922     0.0000E+00  20.00      76.42
  4.931     0.0000E+00  20.00      77.34
  4.942     0.0000E+00  20.00      80.10
  4.984     0.0000E+00  20.00      82.88
  4.994     0.0000E+00  20.00      84.71
  5.005      70.00      110.0      27.88
  5.027     0.0000E+00  20.00      85.66
  5.048      70.00      110.0      28.83
  5.049     0.0000E+00  20.00      84.75
  5.092     0.0000E+00  20.00      83.87
  5.113      70.00      110.0      28.87
  5.156     0.0000E+00  20.00      85.74
  5.177     0.0000E+00  20.00      87.59
  5.177      70.00      110.0      29.83
  5.219     0.0000E+00  20.00      91.29
  5.220      70.00      110.0      30.77
  5.263     0.0000E+00  20.00      90.40
  5.283     0.0000E+00  20.00      93.16
  5.285      70.00      110.0      31.73
  5.305     0.0000E+00  20.00      94.10
  5.306      70.00      110.0      33.58
  5.349      70.00      110.0      33.61
  5.435      70.00      110.0      34.58
  5.456      70.00      110.0      35.52
  5.500      70.00      110.0      34.63
ENDDATA            180
ENDSUBENT          200
SUBENT        F0464003   20010206   20030430
BIB                  5          9
REACTION   (4-BE-9(A,N)6-C-12,,DA)
SAMPLE     Target was about 10 keV thick to 2 MeV alphas
DETECTOR   (TELES,LONGC,BF3) The neutron detecter used was
           modified long-counter with paraffin moderator 5 inches
           in diam. and 5 inches long surrounding a BF3 counter
           which was 1 inch in diam. and extended to the front
           surface of the paraffin.
ERR-ANALYS (DATA-ERR1) Estimated error in cross sections.
STATUS     (TABLE) Table 1
ENDBIB               9
COMMON               1          3
DATA-ERR1
PER-CENT
  25.00
ENDCOMMON            3
DATA                 4         12
EN         ANG-MIN    ANG-MAX    DATA
MEV        ADEG       ADEG       MB/SR
  1.900     0.0000E+00  20.00      25.00
  1.900      70.00      110.0      29.00
  2.300     0.0000E+00  20.00      15.00
  2.300      70.00      110.0      14.00
  2.600     0.0000E+00  20.00      20.00
  2.600      70.00      110.0      12.00
  3.980     0.0000E+00  20.00      79.00
  3.980      70.00      110.0      29.00
  4.400     0.0000E+00  20.00      60.00
  4.400      70.00      110.0      27.00
  5.000     0.0000E+00  20.00      87.00
  5.000      70.00      110.0      30.00
ENDDATA             14
ENDSUBENT           32
SUBENT        F0464004   20010206   20030430
BIB                  7         13
REACTION   (4-BE-9(A,N)6-C-12,,DA,G)
SAMPLE     Target was about 10 keV thick to 2 MeV alphas
PART-DET   (G)
DETECTOR   (NAICR) A 1 in. x 1 in. NaI crystal mounted on a
           DuMont 6292 photomultiplier tube was used for the
           gamma-ray detector.
ERR-ANALYS (EN-ERR) Digitizing error
           (DATA-ERR) Digitizing error
           (DATA-ERR1) Estimated error in cross sections.
COMMENT    Gamma-ray cross sections were obtained by using the
           yield of 4.4-MeV gamma-rays from standardized RaD-Be
           source assuming 0.6 gamma-rays per neutrons.
STATUS     (CURVE) Fig. 1
ENDBIB              13
COMMON               3          3
EN-ERR     DATA-ERR1  DATA-ERR
MEV        PER-CENT   MB/SR
 0.02        40.00     0.15
ENDCOMMON            3
DATA                 4        173
EN         ANG-MIN    ANG-MAX    DATA
MEV        ADEG       ADEG       MB/SR
  1.373      60.00      90.00     0.1659
  1.438     0.0000E+00  10.00     0.4570
  1.460      60.00      90.00     0.4602
  1.526     0.0000E+00  10.00     0.7513
  1.526      60.00      90.00     0.7513
  1.613     0.0000E+00  10.00      1.608
  1.613      60.00      90.00      1.608
  1.678      60.00      90.00      2.744
  1.699     0.0000E+00  10.00      2.747
  1.720      60.00      90.00      4.157
  1.721     0.0000E+00  10.00      3.313
  1.741      60.00      90.00      5.286
  1.742     0.0000E+00  10.00      3.879
  1.764     0.0000E+00  10.00      4.727
  1.783      60.00      90.00      6.981
  1.785     0.0000E+00  10.00      5.856
  1.785      60.00      90.00      8.107
  1.805     0.0000E+00  10.00      7.266
  1.825      60.00      90.00      9.802
  1.826     0.0000E+00  10.00      8.676
  1.846      60.00      90.00      10.65
  1.867      60.00      90.00      11.50
  1.868     0.0000E+00  10.00      10.37
  1.877     0.0000E+00  10.00      11.22
  1.889      60.00      90.00      11.78
  1.909     0.0000E+00  10.00      14.04
  1.910      60.00      90.00      12.35
  1.911      60.00      90.00      11.50
  1.931     0.0000E+00  10.00      13.19
  1.934      60.00      90.00      10.10
  1.954     0.0000E+00  10.00      12.07
  1.955     0.0000E+00  10.00      10.95
  1.957      60.00      90.00      9.258
  1.978     0.0000E+00  10.00      10.39
  1.979     0.0000E+00  10.00      9.543
  1.979     0.0000E+00  10.00      9.828
  1.980      60.00      90.00      7.854
  2.000     0.0000E+00  10.00      8.699
  2.002     0.0000E+00  10.00      7.858
  2.047     0.0000E+00  10.00      7.020
  2.047      60.00      90.00      6.457
  2.092      60.00      90.00      5.338
  2.113     0.0000E+00  10.00      5.904
  2.158     0.0000E+00  10.00      5.347
  2.202     0.0000E+00  10.00      4.791
  2.203      60.00      90.00      4.228
  2.269      60.00      90.00      3.675
  2.290     0.0000E+00  10.00      4.241
  2.357      60.00      90.00      3.406
  2.378     0.0000E+00  10.00      3.972
  2.423      60.00      90.00      3.416
  2.444     0.0000E+00  10.00      3.982
  2.488     0.0000E+00  10.00      4.270
  2.488      60.00      90.00      3.707
  2.532      60.00      90.00      3.995
  2.556     0.0000E+00  10.00      4.532
  2.575      60.00      90.00      4.282
  2.619      60.00      90.00      4.289
  2.640     0.0000E+00  10.00      5.136
  2.685      60.00      90.00      4.017
  2.706     0.0000E+00  10.00      4.865
  2.751      60.00      90.00      3.745
  2.773     0.0000E+00  10.00      4.311
  2.817     0.0000E+00  10.00      3.755
  2.817      60.00      90.00      3.474
  2.883     0.0000E+00  10.00      3.202
  2.905      60.00      90.00      3.486
  2.971     0.0000E+00  10.00      3.214
  2.993      60.00      90.00      3.218
  3.059     0.0000E+00  10.00      2.946
  3.102      60.00      90.00      3.515
  3.146     0.0000E+00  10.00      3.240
  3.190      60.00      90.00      3.809
  3.256     0.0000E+00  10.00      2.975
  3.256      60.00      90.00      3.819
  3.343      60.00      90.00      4.395
  3.344     0.0000E+00  10.00      3.269
  3.452      60.00      90.00      4.692
  3.453     0.0000E+00  10.00      3.567
  3.518     0.0000E+00  10.00      4.139
  3.561      60.00      90.00      5.271
  3.562     0.0000E+00  10.00      4.146
  3.628     0.0000E+00  10.00      4.718
  3.670      60.00      90.00      6.132
  3.693     0.0000E+00  10.00      5.009
  3.758     0.0000E+00  10.00      5.582
  3.779      60.00      90.00      6.710
  3.824     0.0000E+00  10.00      6.154
  3.844      60.00      90.00      7.846
  3.845     0.0000E+00  10.00      7.002
  3.866     0.0000E+00  10.00      7.849
  3.867      60.00      90.00      8.978
  3.886      60.00      90.00      10.39
  3.906      60.00      90.00      11.80
  3.909     0.0000E+00  10.00      8.700
  3.909     0.0000E+00  10.00      9.544
  3.926      60.00      90.00      13.49
  3.927      60.00      90.00      14.61
  3.929     0.0000E+00  10.00      11.24
  3.945      60.00      90.00      16.31
  3.946      60.00      90.00      17.43
  3.949     0.0000E+00  10.00      13.49
  3.953     0.0000E+00  10.00      20.25
  3.967      60.00      90.00      17.43
  3.969      60.00      90.00      16.31
  3.970      60.00      90.00      14.62
  3.971      60.00      90.00      12.93
  3.986     0.0000E+00  10.00      20.81
  3.987     0.0000E+00  10.00      19.41
  3.989     0.0000E+00  10.00      17.44
  3.990     0.0000E+00  10.00      16.03
  3.994      60.00      90.00      11.81
  3.995      60.00      90.00      10.68
  4.013     0.0000E+00  10.00      14.91
  4.018      60.00      90.00      9.842
  4.036     0.0000E+00  10.00      14.35
  4.036     0.0000E+00  10.00      13.78
  4.040      60.00      90.00      9.563
  4.058     0.0000E+00  10.00      13.51
  4.083      60.00      90.00      9.851
  4.102     0.0000E+00  10.00      13.23
  4.149      60.00      90.00      10.42
  4.168     0.0000E+00  10.00      13.24
  4.190     0.0000E+00  10.00      13.81
  4.214      60.00      90.00      11.28
  4.255     0.0000E+00  10.00      13.82
  4.277     0.0000E+00  10.00      14.38
  4.279      60.00      90.00      12.13
  4.298     0.0000E+00  10.00      14.95
  4.320     0.0000E+00  10.00      15.52
  4.341     0.0000E+00  10.00      16.08
  4.344      60.00      90.00      12.98
  4.363     0.0000E+00  10.00      16.65
  4.384     0.0000E+00  10.00      17.21
  4.409      60.00      90.00      13.56
  4.427     0.0000E+00  10.00      17.50
  4.449     0.0000E+00  10.00      18.07
  4.453      60.00      90.00      13.56
  4.470     0.0000E+00  10.00      18.63
  4.492     0.0000E+00  10.00      19.20
  4.513     0.0000E+00  10.00      20.05
  4.518      60.00      90.00      13.85
  4.534     0.0000E+00  10.00      20.61
  4.563      60.00      90.00      13.58
  4.578     0.0000E+00  10.00      21.18
  4.585      60.00      90.00      13.30
  4.621     0.0000E+00  10.00      21.47
  4.672      60.00      90.00      13.31
  4.687     0.0000E+00  10.00      21.76
  4.708     0.0000E+00  10.00      22.05
  4.738      60.00      90.00      13.89
  4.752     0.0000E+00  10.00      22.33
  4.818     0.0000E+00  10.00      22.06
  4.840     0.0000E+00  10.00      22.35
  4.847      60.00      90.00      14.75
  4.906     0.0000E+00  10.00      22.08
  4.912      60.00      90.00      15.32
  4.950     0.0000E+00  10.00      22.36
  4.977      60.00      90.00      15.89
  5.016     0.0000E+00  10.00      22.09
  5.043      60.00      90.00      16.18
  5.081     0.0000E+00  10.00      22.66
  5.108      60.00      90.00      16.76
  5.146     0.0000E+00  10.00      22.95
  5.174      60.00      90.00      16.77
  5.212     0.0000E+00  10.00      23.53
  5.255     0.0000E+00  10.00      24.10
  5.261      60.00      90.00      16.78
  5.305      60.00      90.00      17.35
  5.321     0.0000E+00  10.00      23.82
  5.365     0.0000E+00  10.00      23.83
  5.431     0.0000E+00  10.00      23.84
  5.496     0.0000E+00  10.00      23.85
ENDDATA            175
ENDSUBENT          197
SUBENT        F0464005   20010206   20030430
BIB                  7         11
REACTION   (4-BE-9(A,N)6-C-12,,DA,G)
SAMPLE     Target was about 10 keV thick to 2 MeV alphas
PART-DET   (G)
DETECTOR   (NAICR) A 1 in. x 1 in. NaI crystal mounted on a
           DuMont 6292 photomultiplier tube was used for the
           gamma-ray detector.
ERR-ANALYS (DATA-ERR1) Estimated error in cross sections.
COMMENT    Gamma-ray cross sections were obtained by using the
           yield of 4.4-MeV gamma-rays from standardized RaD-Be
           source assuming 0.6 gamma-rays per neutrons.
STATUS     (TABLE) Table 1
ENDBIB              11
COMMON               1          3
DATA-ERR1
PER-CENT
  40.00
ENDCOMMON            3
DATA                 4         10
EN         ANG-MIN    ANG-MAX    DATA
MEV        ADEG       ADEG       MB/SR
  1.900     0.0000E+00  10.00      14.00
  1.900      60.00      90.00      12.00
  2.600     0.0000E+00  10.00      4.700
  2.600      60.00      90.00      4.000
  3.980     0.0000E+00  10.00      20.00
  3.980      60.00      90.00      18.00
  4.400     0.0000E+00  10.00      18.00
  4.400      60.00      90.00      14.00
  5.000     0.0000E+00  10.00      23.00
  5.000      60.00      90.00      17.00
ENDDATA             12
ENDSUBENT           32
SUBENT        F0464006   20010206   20030430
BIB                  2          2
REACTION   (4-BE-9(A,TOT),,WID)
STATUS     (TABLE) Table 1
ENDBIB               2
NOCOMMON
DATA                 2          6
EN-RES     DATA
MEV        KEV
  1.900      200.0
  2.300      200.0
  2.600      200.0
  3.980      60.00
  4.400      400.0
  5.000      300.0
ENDDATA              8
ENDSUBENT           15
SUBENT        F0464007   20010206   20030430
BIB                  7         21
REACTION   (6-C-13(A,N)8-O-16,,DA)
SAMPLE     67% enriched 13C target was 20 keV thick for
           3.0 MeV alphas
DETECTOR   (TELES,LONGC,BF3) The neutron detecter used was
           modified long-counter with paraffin moderator 5 inches
           in diam. and 5 inches long surrounding a BF3 counter
           which was 1 inch in diam. and extended to the front
           surface of the paraffin.
           (NAICR) A 1 in. x 1 in. NaI crystal mounted on a
           DuMont 6292 photomultiplier tube was used for the
           gamma-ray detector.
COMMENT    It is estimated that at most 10% of the gamma-ray
           yield could be caused by neutrons in the NaI crystal.
MONITOR    The cross section calibration was made at 1.9-MeV
           resonance using both weighed evaporated Be targets
           on 0.002 in. aluminum foil and a thick Be target. A
           stopping power of 1.40 MeV/mg/cm2 was used for 1.9 MeV
           alphas in 9Be.
ERR-ANALYS (EN-ERR) Digitizing error
           (DATA-ERR) Digitizing error
STATUS     (CURVE) Fig.2
ENDBIB              21
COMMON               2          3
EN-ERR     DATA-ERR
MEV        MB/SR
 0.015        0.02
ENDCOMMON            3
DATA                 4        533
EN         ANG-MIN    ANG-MAX    DATA
MEV        ADEG       ADEG       MB/SR
  1.958      80.00      100.0      1.461
  1.959     0.0000E+00  10.00      1.081
  1.980     0.0000E+00  10.00      1.263
  1.981      80.00      100.0      1.792
  1.998      80.00      100.0      2.016
  2.002     0.0000E+00  10.00      1.311
  2.021      80.00      100.0      2.412
  2.022     0.0000E+00  10.00      1.628
  2.038      80.00      100.0      3.043
  2.044     0.0000E+00  10.00      2.094
  2.059      80.00      100.0      3.478
  2.061     0.0000E+00  10.00      2.395
  2.083      80.00      100.0      3.677
  2.089     0.0000E+00  10.00      2.220
  2.111     0.0000E+00  10.00      2.163
  2.111      80.00      100.0      3.550
  2.128      80.00      100.0      3.237
  2.135     0.0000E+00  10.00      2.106
  2.143      80.00      100.0      3.003
  2.149     0.0000E+00  10.00      2.243
  2.167      80.00      100.0      3.137
  2.169     0.0000E+00  10.00      2.545
  2.184      80.00      100.0      3.152
  2.191     0.0000E+00  10.00      3.115
  2.204      80.00      100.0      3.613
  2.210     0.0000E+00  10.00      4.552
  2.224      80.00      100.0      4.480
  2.229     0.0000E+00  10.00      5.809
  2.244      80.00      100.0      4.849
  2.252     0.0000E+00  10.00      6.111
  2.267      80.00      100.0      4.747
  2.272     0.0000E+00  10.00      5.173
  2.292      80.00      100.0      4.514
  2.296     0.0000E+00  10.00      4.579
  2.309      80.00      100.0      4.228
  2.320     0.0000E+00  10.00      3.836
  2.337      80.00      100.0      4.126
  2.342     0.0000E+00  10.00      3.600
  2.360      80.00      100.0      4.338
  2.364     0.0000E+00  10.00      4.469
  2.370      80.00      100.0      4.772
  2.375     0.0000E+00  10.00      4.889
  2.376      80.00      100.0      5.061
  2.383     0.0000E+00  10.00      5.667
  2.393      80.00      100.0      5.325
  2.395     0.0000E+00  10.00      7.312
  2.403      80.00      100.0      5.235
  2.408     0.0000E+00  10.00      9.808
  2.417      80.00      100.0      5.053
  2.420     0.0000E+00  10.00      12.78
  2.429      80.00      100.0      4.215
  2.433     0.0000E+00  10.00      13.13
  2.441      80.00      100.0      3.758
  2.448      80.00      100.0      3.405
  2.452     0.0000E+00  10.00      12.80
  2.453     0.0000E+00  10.00      11.62
  2.458      80.00      100.0      2.266
  2.462     0.0000E+00  10.00      9.980
  2.469      80.00      100.0      2.320
  2.474     0.0000E+00  10.00      8.398
  2.479      80.00      100.0      2.308
  2.484     0.0000E+00  10.00      7.444
  2.496     0.0000E+00  10.00      6.534
  2.497      80.00      100.0      2.022
  2.501     0.0000E+00  10.00      6.326
  2.509     0.0000E+00  10.00      5.685
  2.518      80.00      100.0      1.644
  2.519     0.0000E+00  10.00      5.193
  2.535     0.0000E+00  10.00      4.673
  2.537      80.00      100.0      1.738
  2.547     0.0000E+00  10.00      4.525
  2.550      80.00      100.0      1.582
  2.557     0.0000E+00  10.00      4.168
  2.563      80.00      100.0      1.584
  2.569     0.0000E+00  10.00      3.990
  2.575      80.00      100.0      1.637
  2.579     0.0000E+00  10.00      3.932
  2.588      80.00      100.0      1.927
  2.592     0.0000E+00  10.00      4.068
  2.593      80.00      100.0      3.081
  2.594      80.00      100.0      3.592
  2.595     0.0000E+00  10.00      4.218
  2.595      80.00      100.0      3.199
  2.600      80.00      100.0      5.716
  2.600      80.00      100.0      5.611
  2.604      80.00      100.0      5.061
  2.605     0.0000E+00  10.00      4.578
  2.610      80.00      100.0      4.616
  2.611     0.0000E+00  10.00      4.131
  2.612     0.0000E+00  10.00      3.757
  2.615     0.0000E+00  10.00      3.429
  2.615      80.00      100.0      4.158
  2.617      80.00      100.0      3.909
  2.620      80.00      100.0      3.739
  2.621     0.0000E+00  10.00      3.057
  2.622     0.0000E+00  10.00      2.415
  2.622      80.00      100.0      3.346
  2.625     0.0000E+00  10.00      2.116
  2.625      80.00      100.0      2.665
  2.638      80.00      100.0      1.841
  2.641     0.0000E+00  10.00      2.104
  2.653      80.00      100.0      1.541
  2.655     0.0000E+00  10.00      2.121
  2.663     0.0000E+00  10.00      2.495
  2.668      80.00      100.0      1.700
  2.677     0.0000E+00  10.00      3.752
  2.678     0.0000E+00  10.00      4.633
  2.678      80.00      100.0      3.261
  2.678      80.00      100.0      3.956
  2.684     0.0000E+00  10.00      8.264
  2.688     0.0000E+00  10.00      10.44
  2.688      80.00      100.0      4.324
  2.689      80.00      100.0      4.416
  2.691     0.0000E+00  10.00      12.36
  2.696      80.00      100.0      3.905
  2.697      80.00      100.0      2.831
  2.702     0.0000E+00  10.00      10.89
  2.706     0.0000E+00  10.00      7.804
  2.706      80.00      100.0      2.478
  2.709     0.0000E+00  10.00      6.295
  2.710      80.00      100.0      1.862
  2.712      80.00      100.0      1.587
  2.713     0.0000E+00  10.00      4.758
  2.717     0.0000E+00  10.00      4.041
  2.721     0.0000E+00  10.00      3.504
  2.722      80.00      100.0      1.549
  2.727     0.0000E+00  10.00      3.356
  2.728      80.00      100.0      1.432
  2.737      80.00      100.0      1.381
  2.748     0.0000E+00  10.00      3.329
  2.753      80.00      100.0      1.671
  2.756      80.00      100.0      1.986
  2.763     0.0000E+00  10.00      4.033
  2.766      80.00      100.0      2.537
  2.767     0.0000E+00  10.00      4.467
  2.767      80.00      100.0      3.114
  2.776      80.00      100.0      3.233
  2.778     0.0000E+00  10.00      5.230
  2.781      80.00      100.0      2.788
  2.784     0.0000E+00  10.00      4.887
  2.786     0.0000E+00  10.00      4.051
  2.788      80.00      100.0      2.186
  2.790     0.0000E+00  10.00      3.230
  2.794      80.00      100.0      1.807
  2.797      80.00      100.0      1.873
  2.803     0.0000E+00  10.00      3.247
  2.804     0.0000E+00  10.00      3.785
  2.808      80.00      100.0      2.411
  2.809     0.0000E+00  10.00      5.608
  2.809     0.0000E+00  10.00      5.877
  2.810      80.00      100.0      5.098
  2.810      80.00      100.0      3.512
  2.813      80.00      100.0      5.636
  2.818     0.0000E+00  10.00      8.477
  2.819     0.0000E+00  10.00      12.91
  2.824      80.00      100.0      6.463
  2.826     0.0000E+00  10.00      13.83
  2.829      80.00      100.0      5.087
  2.832      80.00      100.0      5.716
  2.834     0.0000E+00  10.00      11.20
  2.837      80.00      100.0      3.777
  2.841      80.00      100.0      2.795
  2.842     0.0000E+00  10.00      7.091
  2.843     0.0000E+00  10.00      4.029
  2.864      80.00      100.0      1.592
  2.866     0.0000E+00  10.00      1.941
  2.884      80.00      100.0      1.293
  2.892     0.0000E+00  10.00      1.632
  2.912      80.00      100.0      1.191
  2.917     0.0000E+00  10.00      1.575
  2.936      80.00      100.0      1.181
  2.943     0.0000E+00  10.00      1.624
  2.955      80.00      100.0      1.314
  2.963     0.0000E+00  10.00      1.686
  2.982      80.00      100.0      1.448
  2.986     0.0000E+00  10.00      1.675
  3.004      80.00      100.0      1.634
  3.010     0.0000E+00  10.00      2.111
  3.030      80.00      100.0      2.004
  3.032     0.0000E+00  10.00      2.936
  3.050      80.00      100.0      2.806
  3.056     0.0000E+00  10.00      4.911
  3.059      80.00      100.0      3.148
  3.066     0.0000E+00  10.00      6.764
  3.076      80.00      100.0      3.438
  3.081     0.0000E+00  10.00      8.081
  3.089     0.0000E+00  10.00      8.366
  3.089      80.00      100.0      3.427
  3.097      80.00      100.0      3.073
  3.101     0.0000E+00  10.00      8.338
  3.109      80.00      100.0      2.721
  3.113     0.0000E+00  10.00      7.832
  3.125     0.0000E+00  10.00      7.101
  3.127      80.00      100.0      2.553
  3.135     0.0000E+00  10.00      6.535
  3.147      80.00      100.0      2.424
  3.153     0.0000E+00  10.00      6.433
  3.156      80.00      100.0      2.412
  3.173      80.00      100.0      2.427
  3.175     0.0000E+00  10.00      6.436
  3.182      80.00      100.0      2.493
  3.198     0.0000E+00  10.00      6.768
  3.201      80.00      100.0      2.640
  3.202     0.0000E+00  10.00      7.277
  3.203      80.00      100.0      2.732
  3.225      80.00      100.0      3.036
  3.230     0.0000E+00  10.00      8.311
  3.245      80.00      100.0      3.549
  3.253     0.0000E+00  10.00      9.644
  3.260      80.00      100.0      3.931
  3.266     0.0000E+00  10.00      10.66
  3.280      80.00      100.0      4.693
  3.283     0.0000E+00  10.00      12.83
  3.302      80.00      100.0      5.535
  3.308     0.0000E+00  10.00      15.78
  3.310     0.0000E+00  10.00      16.54
  3.313      80.00      100.0      6.021
  3.316     0.0000E+00  10.00      17.49
  3.336      80.00      100.0      5.735
  3.338     0.0000E+00  10.00      18.63
  3.357      80.00      100.0      5.174
  3.360     0.0000E+00  10.00      17.64
  3.363      80.00      100.0      4.703
  3.366     0.0000E+00  10.00      17.19
  3.370      80.00      100.0      4.455
  3.377     0.0000E+00  10.00      16.71
  3.379      80.00      100.0      3.853
  3.388     0.0000E+00  10.00      15.25
  3.391      80.00      100.0      3.868
  3.398     0.0000E+00  10.00      16.07
  3.402      80.00      100.0      4.039
  3.409      80.00      100.0      4.682
  3.409      80.00      100.0      3.988
  3.410     0.0000E+00  10.00      15.89
  3.416      80.00      100.0      5.155
  3.418     0.0000E+00  10.00      15.76
  3.424     0.0000E+00  10.00      15.18
  3.425      80.00      100.0      5.339
  3.428     0.0000E+00  10.00      12.31
  3.430      80.00      100.0      4.685
  3.438      80.00      100.0      4.607
  3.443     0.0000E+00  10.00      8.371
  3.444      80.00      100.0      3.231
  3.448     0.0000E+00  10.00      4.683
  3.451      80.00      100.0      2.787
  3.460     0.0000E+00  10.00      4.012
  3.461      80.00      100.0      2.041
  3.469     0.0000E+00  10.00      2.729
  3.477      80.00      100.0      1.715
  3.480     0.0000E+00  10.00      2.253
  3.499      80.00      100.0      1.115
  3.501     0.0000E+00  10.00      1.658
  3.516      80.00      100.0     0.8415
  3.521     0.0000E+00  10.00      1.467
  3.539     0.0000E+00  10.00      1.335
  3.541      80.00      100.0     0.7132
  3.550     0.0000E+00  10.00      1.277
  3.551      80.00      100.0     0.6619
  3.563     0.0000E+00  10.00      1.294
  3.563     0.0000E+00  10.00      1.234
  3.572     0.0000E+00  10.00      1.086
  3.579     0.0000E+00  10.00      1.191
  3.579      80.00      100.0     0.6128
  3.602      80.00      100.0     0.5368
  3.603     0.0000E+00  10.00     0.8064
  3.614     0.0000E+00  10.00     0.7781
  3.617      80.00      100.0     0.3812
  3.627     0.0000E+00  10.00     0.7351
  3.634      80.00      100.0     0.4226
  3.644     0.0000E+00  10.00     0.5584
  3.654     0.0000E+00  10.00     0.7838
  3.657      80.00      100.0     0.6479
  3.658     0.0000E+00  10.00      1.143
  3.669     0.0000E+00  10.00      1.488
  3.671     0.0000E+00  10.00      1.279
  3.678     0.0000E+00  10.00     0.9963
  3.680      80.00      100.0     0.3754
  3.688      80.00      100.0     0.3895
  3.691     0.0000E+00  10.00     0.9235
  3.700     0.0000E+00  10.00      1.089
  3.708     0.0000E+00  10.00      1.210
  3.708      80.00      100.0     0.5621
  3.710     0.0000E+00  10.00      1.449
  3.711      80.00      100.0     0.6674
  3.713     0.0000E+00  10.00      1.823
  3.716      80.00      100.0      1.100
  3.720      80.00      100.0      1.756
  3.721     0.0000E+00  10.00      3.064
  3.727     0.0000E+00  10.00      4.902
  3.727      80.00      100.0      2.072
  3.734     0.0000E+00  10.00      4.992
  3.738      80.00      100.0      1.640
  3.740     0.0000E+00  10.00      3.320
  3.740      80.00      100.0      1.116
  3.743     0.0000E+00  10.00      2.200
  3.747      80.00      100.0     0.6714
  3.749     0.0000E+00  10.00      1.410
  3.754     0.0000E+00  10.00     0.8428
  3.758      80.00      100.0     0.3582
  3.766     0.0000E+00  10.00     0.4262
  3.786      80.00      100.0     0.2173
  3.791     0.0000E+00  10.00     0.4896
  3.806     0.0000E+00  10.00     0.3722
  3.806      80.00      100.0     0.2195
  3.826      80.00      100.0     0.2219
  3.828     0.0000E+00  10.00     0.3604
  3.846     0.0000E+00  10.00     0.3032
  3.854      80.00      100.0     0.2251
  3.873      80.00      100.0     0.1749
  3.874     0.0000E+00  10.00     0.2624
  3.890     0.0000E+00  10.00     0.2796
  3.893      80.00      100.0     0.1248
  3.899     0.0000E+00  10.00     0.2360
  3.915      80.00      100.0     0.1273
  3.916     0.0000E+00  10.00     0.2535
  3.938      80.00      100.0     0.1300
  3.941     0.0000E+00  10.00     0.2420
  3.959      80.00      100.0     0.2372
  3.960     0.0000E+00  10.00     0.3344
  3.979      80.00      100.0     0.2133
  3.986     0.0000E+00  10.00     0.3977
  3.995      80.00      100.0     0.2544
  4.002     0.0000E+00  10.00     0.4298
  4.012     0.0000E+00  10.00     0.4762
  4.013      80.00      100.0     0.3614
  4.021      80.00      100.0     0.3754
  4.022     0.0000E+00  10.00     0.5373
  4.030     0.0000E+00  10.00     0.6579
  4.035      80.00      100.0     0.4688
  4.043     0.0000E+00  10.00     0.7493
  4.054     0.0000E+00  10.00     0.7809
  4.074      80.00      100.0     0.4995
  4.076     0.0000E+00  10.00     0.9631
  4.081     0.0000E+00  10.00      1.128
  4.086      80.00      100.0     0.5664
  4.095     0.0000E+00  10.00      1.444
  4.101      80.00      100.0     0.8303
  4.104      80.00      100.0      1.040
  4.106     0.0000E+00  10.00      2.162
  4.108      80.00      100.0      1.381
  4.112     0.0000E+00  10.00      2.835
  4.116      80.00      100.0      1.395
  4.119     0.0000E+00  10.00      4.046
  4.124     0.0000E+00  10.00      4.600
  4.125      80.00      100.0      1.370
  4.135      80.00      100.0     0.8734
  4.136     0.0000E+00  10.00      3.152
  4.148      80.00      100.0     0.6915
  4.149     0.0000E+00  10.00      2.288
  4.155     0.0000E+00  10.00      1.900
  4.162      80.00      100.0     0.5359
  4.168     0.0000E+00  10.00      1.798
  4.178      80.00      100.0     0.4590
  4.179     0.0000E+00  10.00      1.650
  4.202      80.00      100.0     0.4619
  4.203     0.0000E+00  10.00      1.459
  4.212      80.00      100.0     0.4368
  4.219     0.0000E+00  10.00      1.402
  4.230      80.00      100.0     0.3995
  4.239     0.0000E+00  10.00      1.464
  4.249      80.00      100.0     0.3885
  4.260     0.0000E+00  10.00      1.348
  4.273      80.00      100.0     0.3914
  4.275     0.0000E+00  10.00      1.365
  4.295      80.00      100.0     0.3939
  4.302     0.0000E+00  10.00      1.503
  4.317      80.00      100.0     0.4882
  4.323     0.0000E+00  10.00      1.491
  4.339      80.00      100.0     0.6086
  4.341     0.0000E+00  10.00      1.673
  4.373      80.00      100.0     0.8878
  4.379     0.0000E+00  10.00      3.023
  4.379      80.00      100.0      1.124
  4.383     0.0000E+00  10.00      4.143
  4.388     0.0000E+00  10.00      5.040
  4.388      80.00      100.0      1.741
  4.393      80.00      100.0      2.306
  4.395     0.0000E+00  10.00      7.207
  4.404     0.0000E+00  10.00      10.87
  4.406      80.00      100.0      3.513
  4.415     0.0000E+00  10.00      18.35
  4.420      80.00      100.0      3.711
  4.432     0.0000E+00  10.00      20.98
  4.432      80.00      100.0      2.729
  4.439     0.0000E+00  10.00      17.30
  4.454      80.00      100.0      1.277
  4.457     0.0000E+00  10.00      7.425
  4.460      80.00      100.0      1.016
  4.464     0.0000E+00  10.00      6.664
  4.469     0.0000E+00  10.00      6.157
  4.476      80.00      100.0     0.8734
  4.484      80.00      100.0     0.7040
  4.485     0.0000E+00  10.00      5.756
  4.495     0.0000E+00  10.00      5.056
  4.498     0.0000E+00  10.00      4.727
  4.500     0.0000E+00  10.00      4.459
  4.503      80.00      100.0     0.5621
  4.512     0.0000E+00  10.00      4.401
  4.516      80.00      100.0     0.5373
  4.521     0.0000E+00  10.00      3.670
  4.526      80.00      100.0     0.4336
  4.531     0.0000E+00  10.00      2.760
  4.536     0.0000E+00  10.00      2.612
  4.538      80.00      100.0     0.4875
  4.552     0.0000E+00  10.00      2.629
  4.560     0.0000E+00  10.00      2.555
  4.563      80.00      100.0     0.4903
  4.567      80.00      100.0     0.6480
  4.568     0.0000E+00  10.00      2.870
  4.582     0.0000E+00  10.00      3.111
  4.582      80.00      100.0     0.7416
  4.589      80.00      100.0      1.280
  4.590     0.0000E+00  10.00      3.366
  4.597     0.0000E+00  10.00      4.756
  4.600      80.00      100.0      1.661
  4.603     0.0000E+00  10.00      6.355
  4.603      80.00      100.0      1.897
  4.606      80.00      100.0      2.068
  4.609     0.0000E+00  10.00      6.969
  4.611      80.00      100.0      2.645
  4.616     0.0000E+00  10.00      7.686
  4.618      80.00      100.0      3.707
  4.622     0.0000E+00  10.00      10.11
  4.623      80.00      100.0      4.796
  4.626     0.0000E+00  10.00      12.51
  4.631      80.00      100.0      4.928
  4.635      80.00      100.0      3.736
  4.637     0.0000E+00  10.00      22.25
  4.638      80.00      100.0      2.858
  4.642     0.0000E+00  10.00      23.93
  4.643      80.00      100.0      2.570
  4.651     0.0000E+00  10.00      10.35
  4.652     0.0000E+00  10.00      14.98
  4.652      80.00      100.0      2.270
  4.660     0.0000E+00  10.00      6.931
  4.664      80.00      100.0      1.760
  4.667     0.0000E+00  10.00      5.364
  4.670      80.00      100.0      1.407
  4.678     0.0000E+00  10.00      4.648
  4.684      80.00      100.0      1.264
  4.688     0.0000E+00  10.00      4.784
  4.701      80.00      100.0      1.188
  4.709      80.00      100.0      1.346
  4.712     0.0000E+00  10.00      5.101
  4.715     0.0000E+00  10.00      5.699
  4.715      80.00      100.0      1.465
  4.727      80.00      100.0      1.702
  4.731     0.0000E+00  10.00      5.671
  4.738      80.00      100.0      1.769
  4.745     0.0000E+00  10.00      5.868
  4.750      80.00      100.0      1.849
  4.754     0.0000E+00  10.00      5.764
  4.756      80.00      100.0      2.020
  4.762      80.00      100.0      2.125
  4.765     0.0000E+00  10.00      5.602
  4.775      80.00      100.0      2.192
  4.790     0.0000E+00  10.00      4.410
  4.791      80.00      100.0      2.194
  4.800      80.00      100.0      2.313
  4.801     0.0000E+00  10.00      4.173
  4.807      80.00      100.0      2.353
  4.814     0.0000E+00  10.00      3.771
  4.816      80.00      100.0      2.446
  4.826     0.0000E+00  10.00      3.654
  4.829      80.00      100.0      2.500
  4.833     0.0000E+00  10.00      3.251
  4.850      80.00      100.0      2.581
  4.851     0.0000E+00  10.00      2.940
  4.856      80.00      100.0      2.726
  4.862     0.0000E+00  10.00      2.658
  4.862      80.00      100.0      2.740
  4.866      80.00      100.0      2.845
  4.868      80.00      100.0      2.937
  4.875      80.00      100.0      2.597
  4.876     0.0000E+00  10.00      2.496
  4.883     0.0000E+00  10.00      1.645
  4.887      80.00      100.0      2.454
  4.902     0.0000E+00  10.00      1.588
  4.911     0.0000E+00  10.00      1.888
  4.913      80.00      100.0      2.169
  4.923      80.00      100.0      2.275
  4.926     0.0000E+00  10.00      2.085
  4.935      80.00      100.0      2.329
  4.938     0.0000E+00  10.00      2.878
  4.939     0.0000E+00  10.00      2.042
  4.946      80.00      100.0      2.776
  4.947     0.0000E+00  10.00      3.820
  4.955      80.00      100.0      2.934
  4.957     0.0000E+00  10.00      4.359
  4.965      80.00      100.0      2.961
  4.967      80.00      100.0      3.171
  4.971     0.0000E+00  10.00      5.153
  4.976     0.0000E+00  10.00      6.513
  4.979      80.00      100.0      3.539
  4.990     0.0000E+00  10.00      8.337
  4.992      80.00      100.0      4.209
  4.997     0.0000E+00  10.00      9.548
  5.000      80.00      100.0      4.643
  5.001     0.0000E+00  10.00      11.85
  5.006     0.0000E+00  10.00      11.75
  5.009      80.00      100.0      4.984
  5.016     0.0000E+00  10.00      14.20
  5.018      80.00      100.0      5.785
  5.024     0.0000E+00  10.00      18.52
  5.026      80.00      100.0      6.520
  5.033     0.0000E+00  10.00      21.18
  5.033      80.00      100.0      7.006
  5.043     0.0000E+00  10.00      26.28
  5.043     0.0000E+00  10.00      24.73
  5.045      80.00      100.0      7.439
  5.056      80.00      100.0      7.061
  5.064     0.0000E+00  10.00      27.21
  5.066      80.00      100.0      6.511
  5.068     0.0000E+00  10.00      27.92
  5.069      80.00      100.0      5.490
  5.074     0.0000E+00  10.00      28.67
  5.075      80.00      100.0      4.756
  5.083      80.00      100.0      4.744
  5.084     0.0000E+00  10.00      36.03
  5.093      80.00      100.0      4.942
  5.097     0.0000E+00  10.00      46.92
  5.108     0.0000E+00  10.00      48.32
  5.109      80.00      100.0      4.917
  5.112     0.0000E+00  10.00      40.36
  5.117      80.00      100.0      5.049
  5.130      80.00      100.0      5.038
  5.132     0.0000E+00  10.00      33.31
  5.135      80.00      100.0      5.327
  5.141     0.0000E+00  10.00      32.62
  5.144      80.00      100.0      5.721
  5.153     0.0000E+00  10.00      32.12
  5.162      80.00      100.0      5.566
  5.166     0.0000E+00  10.00      31.23
ENDDATA            535
ENDSUBENT          565
SUBENT        F0464008   20010206   20030430
BIB                  6         19
REACTION   (6-C-13(A,N)8-O-16,,DA)
SAMPLE     67% enriched 13C target was 20 keV thick for
           3.0 MeV alphas
DETECTOR   (TELES,LONGC,BF3) The neutron detecter used was
           modified long-counter with paraffin moderator 5 inches
           in diam. and 5 inches long surrounding a BF3 counter
           which was 1 inch in diam. and extended to the front
           surface of the paraffin.
           (NAICR) A 1 in. x 1 in. NaI crystal mounted on a
           DuMont 6292 photomultiplier tube was used for the
           gamma-ray detector.
COMMENT    It is estimated that at most 10% of the gamma-ray
           yield could be caused by neutrons in the NaI crystal.
MONITOR    The cross section calibration was made at 1.9-MeV
           resonance using both weighed evaporated Be targets
           on 0.002 in. aluminum foil and a thick Be target. A
           stopping power of 1.40 MeV/mg/cm2 was used for 1.9 MeV
           alphas in 9Be.
STATUS     (TABLE) Table 2
ENDBIB              19
NOCOMMON
DATA                 5         35
EN         ANG-MIN    ANG-MAX    DATA       DATA-MIN
MEV        ADEG       ADEG       MB/SR      MB/SR
  2.090     0.0000E+00  10.00      2.700
  2.090      80.00      100.0      4.600
  2.250     0.0000E+00  10.00      6.700
  2.250      80.00      100.0      6.200
  2.420     0.0000E+00  10.00      14.00
  2.420      80.00      100.0      6.800
  2.605     0.0000E+00  10.00                 12.00
  2.605      80.00      100.0                 15.00
  2.690     0.0000E+00  10.00      24.00
  2.690      80.00      100.0      10.00
  2.775     0.0000E+00  10.00      10.00
  2.775      80.00      100.0      7.500
  2.825     0.0000E+00  10.00                 36.00
  2.825      80.00      100.0                 20.00
  3.090     0.0000E+00  10.00      9.100
  3.090      80.00      100.0      4.300
  3.330     0.0000E+00  10.00      20.00
  3.330      80.00      100.0      7.600
  3.420     0.0000E+00  10.00      17.00
  3.420      80.00      100.0      7.400
  3.670     0.0000E+00  10.00                 3.500
  3.670      80.00      100.0                 2.100
  3.730     0.0000E+00  10.00                 17.00
  3.730      80.00      100.0                 8.000
  4.125     0.0000E+00  10.00      7.400
  4.125      80.00      100.0      2.800
  4.420     0.0000E+00  10.00      28.00
  4.420      80.00      100.0      5.700
  4.500     0.0000E+00  10.00      6.000
  4.630     0.0000E+00  10.00      38.00
  4.630      80.00      100.0      9.100
  4.750     0.0000E+00  10.00      6.800
  4.750      80.00      100.0      3.500
  5.050     0.0000E+00  10.00      30.00
  5.050      80.00      100.0      9.500
ENDDATA             37
ENDSUBENT           61
SUBENT        F0464009   20010206   20030430
BIB                  2          2
REACTION   (6-C-13(A,N),,WID)
STATUS     (TABLE) Table 2
ENDBIB               2
NOCOMMON
DATA                 3         18
EN-RES     DATA       DATA-MAX
MEV        KEV        KEV
  2.090      100.0
  2.250      100.0
  2.420      80.00
  2.605                 6.000
  2.690      10.00
  2.775      10.00
  2.825                 7.000
  3.090      90.00
  3.330      150.0
  3.420      30.00
  3.670                 8.000
  3.730                 5.000
  4.125      15.00
  4.420      25.00
  4.500      70.00
  4.630      15.00
  4.750      200.0
  5.050      65.00
ENDDATA             20
ENDSUBENT           27
SUBENT        F0464010   20010206   20030430
BIB                  5         11
REACTION   (5-B-10(A,N)7-N-13,,DA)
SAMPLE     96% enriched 10B target was 10 keV thick for
           2.0 MeV alphas
DETECTOR   (TELES,LONGC,BF3) The neutron detecter used was
           modified long-counter with paraffin moderator 5 inches
           in diam. and 5 inches long surrounding a BF3 counter
           which was 1 inch in diam. and extended to the front
           surface of the paraffin.
ERR-ANALYS (EN-ERR) Digitizing error
           (DATA-ERR) Digitizing error
STATUS     (CURVE) Fig. 3
ENDBIB              11
COMMON               2          3
EN-ERR     DATA-ERR
MEV        MB/SR
 0.013      0.06
ENDCOMMON            3
DATA                 4        359
EN         ANG-MIN    ANG-MAX    DATA
MEV        ADEG       ADEG       MB/SR
  2.016      70.00      110.0     0.7225
  2.034      70.00      110.0     0.4602
  2.061      70.00      110.0     0.3033
  2.066     0.0000E+00  20.00      1.162
  2.078      70.00      110.0     0.3565
  2.084     0.0000E+00  20.00     0.7413
  2.105      70.00      110.0     0.4099
  2.111     0.0000E+00  20.00     0.4791
  2.114      70.00      110.0     0.6204
  2.138     0.0000E+00  20.00     0.3747
  2.139      70.00      110.0      1.515
  2.140      70.00      110.0      1.252
  2.140      70.00      110.0     0.8316
  2.140      70.00      110.0     0.6738
  2.149      70.00      110.0     0.5690
  2.155     0.0000E+00  20.00     0.5332
  2.164     0.0000E+00  20.00     0.8493
  2.167      70.00      110.0     0.5170
  2.172     0.0000E+00  20.00      1.165
  2.181     0.0000E+00  20.00     0.9551
  2.184      70.00      110.0     0.4124
  2.190     0.0000E+00  20.00     0.7449
  2.191     0.0000E+00  20.00     0.5871
  2.193      70.00      110.0     0.4653
  2.211      70.00      110.0     0.6235
  2.217     0.0000E+00  20.00     0.5353
  2.235     0.0000E+00  20.00     0.5359
  2.237      70.00      110.0     0.7295
  2.246      70.00      110.0     0.7824
  2.252     0.0000E+00  20.00     0.6418
  2.270     0.0000E+00  20.00     0.6950
  2.270     0.0000E+00  20.00     0.8529
  2.272      70.00      110.0     0.7307
  2.290      70.00      110.0     0.7312
  2.296     0.0000E+00  20.00     0.9591
  2.299      70.00      110.0     0.5212
  2.323     0.0000E+00  20.00     0.8547
  2.326      70.00      110.0     0.5221
  2.341     0.0000E+00  20.00     0.8027
  2.352      70.00      110.0     0.4704
  2.376     0.0000E+00  20.00     0.6460
  2.388      70.00      110.0     0.4189
  2.402     0.0000E+00  20.00     0.5943
  2.414      70.00      110.0     0.3672
  2.420     0.0000E+00  20.00     0.5949
  2.429     0.0000E+00  20.00     0.6479
  2.441      70.00      110.0     0.3681
  2.455     0.0000E+00  20.00     0.5961
  2.467      70.00      110.0     0.3689
  2.482     0.0000E+00  20.00     0.6497
  2.485      70.00      110.0     0.3169
  2.500     0.0000E+00  20.00     0.5977
  2.502      70.00      110.0     0.4226
  2.529      70.00      110.0     0.3709
  2.553     0.0000E+00  20.00     0.4942
  2.555      70.00      110.0     0.4243
  2.570     0.0000E+00  20.00     0.5475
  2.579     0.0000E+00  20.00     0.6004
  2.582      70.00      110.0     0.5303
  2.606     0.0000E+00  20.00     0.6539
  2.608      70.00      110.0     0.5837
  2.623     0.0000E+00  20.00     0.9703
  2.635      70.00      110.0     0.6371
  2.652      70.00      110.0     0.6902
  2.658     0.0000E+00  20.00     0.9715
  2.676     0.0000E+00  20.00     0.9195
  2.679      70.00      110.0     0.5860
  2.703     0.0000E+00  20.00     0.8151
  2.705      70.00      110.0     0.5342
  2.732      70.00      110.0     0.5351
  2.738     0.0000E+00  20.00     0.8690
  2.756     0.0000E+00  20.00     0.7117
  2.756     0.0000E+00  20.00     0.6065
  2.758      70.00      110.0     0.5359
  2.767      70.00      110.0     0.5888
  2.782     0.0000E+00  20.00     0.6600
  2.785      70.00      110.0     0.5893
  2.791     0.0000E+00  20.00     0.7129
  2.802      70.00      110.0     0.6951
  2.809     0.0000E+00  20.00     0.8188
  2.835     0.0000E+00  20.00     0.8723
  2.838      70.00      110.0     0.7487
  2.855      70.00      110.0     0.8019
  2.861     0.0000E+00  20.00      1.084
  2.882      70.00      110.0     0.8553
  2.897     0.0000E+00  20.00      1.085
  2.899      70.00      110.0     0.9610
  2.914     0.0000E+00  20.00      1.138
  2.917      70.00      110.0      1.067
  2.926      70.00      110.0      1.120
  2.941     0.0000E+00  20.00      1.139
  2.943      70.00      110.0      1.173
  2.961      70.00      110.0      1.278
  2.961      70.00      110.0      1.383
  2.967     0.0000E+00  20.00      1.245
  2.985     0.0000E+00  20.00      1.298
  2.987      70.00      110.0      1.437
  2.996      70.00      110.0      1.490
  3.005      70.00      110.0      1.648
  3.011     0.0000E+00  20.00      1.299
  3.013      70.00      110.0      1.753
  3.029     0.0000E+00  20.00      1.142
  3.031      70.00      110.0      1.491
  3.040      70.00      110.0      1.386
  3.046     0.0000E+00  20.00      1.195
  3.047     0.0000E+00  20.00      1.301
  3.064     0.0000E+00  20.00      1.143
  3.064     0.0000E+00  20.00      1.354
  3.067      70.00      110.0      1.439
  3.091     0.0000E+00  20.00      1.092
  3.093      70.00      110.0      1.335
  3.100     0.0000E+00  20.00      1.039
  3.111      70.00      110.0      1.283
  3.117     0.0000E+00  20.00      1.092
  3.120      70.00      110.0      1.178
  3.138      70.00      110.0      1.179
  3.144     0.0000E+00  20.00      1.041
  3.164      70.00      110.0      1.180
  3.179     0.0000E+00  20.00      1.042
  3.191      70.00      110.0      1.128
  3.197     0.0000E+00  20.00     0.9900
  3.217      70.00      110.0      1.234
  3.224     0.0000E+00  20.00     0.9909
  3.243      70.00      110.0      1.077
  3.250     0.0000E+00  20.00      1.044
  3.261      70.00      110.0      1.183
  3.276     0.0000E+00  20.00      1.098
  3.279      70.00      110.0      1.078
  3.303     0.0000E+00  20.00      1.204
  3.314      70.00      110.0      1.079
  3.329     0.0000E+00  20.00      1.310
  3.341      70.00      110.0      1.291
  3.347     0.0000E+00  20.00      1.206
  3.385      70.00      110.0      1.292
  3.391     0.0000E+00  20.00      1.260
  3.411      70.00      110.0      1.398
  3.417     0.0000E+00  20.00      1.313
  3.435     0.0000E+00  20.00      1.419
  3.437      70.00      110.0      1.504
  3.455      70.00      110.0      1.452
  3.461     0.0000E+00  20.00      1.473
  3.488     0.0000E+00  20.00      1.526
  3.490      70.00      110.0      1.453
  3.506     0.0000E+00  20.00      1.474
  3.517      70.00      110.0      1.559
  3.523     0.0000E+00  20.00      1.580
  3.532     0.0000E+00  20.00      1.633
  3.541     0.0000E+00  20.00      1.739
  3.552      70.00      110.0      1.718
  3.567     0.0000E+00  20.00      1.950
  3.584     0.0000E+00  20.00      2.319
  3.584     0.0000E+00  20.00      2.161
  3.596      70.00      110.0      1.824
  3.607      70.00      110.0      2.277
  3.610     0.0000E+00  20.00      2.688
  3.619     0.0000E+00  20.00      2.583
  3.625      70.00      110.0      2.280
  3.637     0.0000E+00  20.00      2.794
  3.642      70.00      110.0      2.282
  3.649     0.0000E+00  20.00      3.666
  3.658     0.0000E+00  20.00      4.180
  3.660      70.00      110.0      2.540
  3.669      70.00      110.0      2.542
  3.693     0.0000E+00  20.00      3.928
  3.693     0.0000E+00  20.00      4.185
  3.695      70.00      110.0      2.801
  3.711     0.0000E+00  20.00      4.187
  3.722      70.00      110.0      2.805
  3.737     0.0000E+00  20.00      4.703
  3.748      70.00      110.0      3.064
  3.755     0.0000E+00  20.00      4.449
  3.757      70.00      110.0      3.322
  3.773     0.0000E+00  20.00      4.452
  3.775      70.00      110.0      3.068
  3.781     0.0000E+00  20.00      4.966
  3.792      70.00      110.0      3.326
  3.799     0.0000E+00  20.00      4.968
  3.810      70.00      110.0      3.329
  3.816     0.0000E+00  20.00      5.483
  3.836      70.00      110.0      3.332
  3.843     0.0000E+00  20.00      5.487
  3.845      70.00      110.0      3.333
  3.852     0.0000E+00  20.00      5.232
  3.863      70.00      110.0      3.592
  3.870     0.0000E+00  20.00      4.978
  3.872      70.00      110.0      3.593
  3.896     0.0000E+00  20.00      5.238
  3.898      70.00      110.0      3.596
  3.914     0.0000E+00  20.00      5.240
  3.916      70.00      110.0      3.855
  3.922     0.0000E+00  20.00      5.498
  3.925      70.00      110.0      4.112
  3.940     0.0000E+00  20.00      6.013
  3.942      70.00      110.0      4.115
  3.958     0.0000E+00  20.00      6.016
  3.960      70.00      110.0      3.861
  3.975     0.0000E+00  20.00      6.018
  3.978      70.00      110.0      4.119
  3.993     0.0000E+00  20.00      6.277
  4.004      70.00      110.0      4.122
  4.013      70.00      110.0      4.636
  4.019     0.0000E+00  20.00      6.793
  4.037     0.0000E+00  20.00      6.795
  4.040      70.00      110.0      4.640
  4.046     0.0000E+00  20.00      7.309
  4.048      70.00      110.0      4.641
  4.055     0.0000E+00  20.00      7.823
  4.066      70.00      110.0      4.387
  4.081     0.0000E+00  20.00      8.083
  4.084      70.00      110.0      4.645
  4.090     0.0000E+00  20.00      8.597
  4.107     0.0000E+00  20.00      9.112
  4.110      70.00      110.0      4.905
  4.125     0.0000E+00  20.00      9.115
  4.128      70.00      110.0      4.907
  4.143     0.0000E+00  20.00      9.373
  4.145      70.00      110.0      4.910
  4.154      70.00      110.0      5.423
  4.160     0.0000E+00  20.00      9.632
  4.178     0.0000E+00  20.00      10.40
  4.187     0.0000E+00  20.00      10.66
  4.189      70.00      110.0      5.684
  4.198      70.00      110.0      5.942
  4.213     0.0000E+00  20.00      11.43
  4.216      70.00      110.0      5.944
  4.231     0.0000E+00  20.00      11.18
  4.234      70.00      110.0      6.459
  4.239     0.0000E+00  20.00      11.95
  4.251      70.00      110.0      6.461
  4.257     0.0000E+00  20.00      11.95
  4.269      70.00      110.0      6.976
  4.275     0.0000E+00  20.00      12.72
  4.292     0.0000E+00  20.00      12.98
  4.295      70.00      110.0      7.236
  4.310     0.0000E+00  20.00      13.50
  4.322      70.00      110.0      7.495
  4.327     0.0000E+00  20.00      14.53
  4.336     0.0000E+00  20.00      15.55
  4.339      70.00      110.0      7.498
  4.345     0.0000E+00  20.00      15.04
  4.348      70.00      110.0      7.755
  4.363     0.0000E+00  20.00      15.04
  4.366      70.00      110.0      7.501
  4.371     0.0000E+00  20.00      16.07
  4.375      70.00      110.0      8.015
  4.398     0.0000E+00  20.00      16.07
  4.401      70.00      110.0      7.762
  4.406     0.0000E+00  20.00      16.84
  4.419      70.00      110.0      8.021
  4.424     0.0000E+00  20.00      17.61
  4.436      70.00      110.0      7.766
  4.451     0.0000E+00  20.00      17.11
  4.454      70.00      110.0      8.281
  4.468     0.0000E+00  20.00      17.62
  4.472      70.00      110.0      8.284
  4.477     0.0000E+00  20.00      17.11
  4.489      70.00      110.0      8.799
  4.495     0.0000E+00  20.00      17.63
  4.516      70.00      110.0      9.315
  4.521     0.0000E+00  20.00      17.89
  4.530     0.0000E+00  20.00      18.66
  4.538     0.0000E+00  20.00      19.17
  4.542      70.00      110.0      9.831
  4.556     0.0000E+00  20.00      22.76
  4.560      70.00      110.0      9.576
  4.582     0.0000E+00  20.00      24.56
  4.595      70.00      110.0      9.325
  4.608     0.0000E+00  20.00      25.08
  4.613      70.00      110.0      9.071
  4.626     0.0000E+00  20.00      23.80
  4.631      70.00      110.0      8.048
  4.635     0.0000E+00  20.00      22.00
  4.644     0.0000E+00  20.00      21.24
  4.648      70.00      110.0      8.563
  4.653     0.0000E+00  20.00      19.70
  4.666      70.00      110.0      8.052
  4.680     0.0000E+00  20.00      19.70
  4.689     0.0000E+00  20.00      19.19
  4.693      70.00      110.0      7.543
  4.710      70.00      110.0      7.801
  4.715     0.0000E+00  20.00      19.71
  4.728      70.00      110.0      7.547
  4.741     0.0000E+00  20.00      19.97
  4.754      70.00      110.0      7.551
  4.759     0.0000E+00  20.00      21.51
  4.759     0.0000E+00  20.00      20.74
  4.772      70.00      110.0      7.553
  4.777     0.0000E+00  20.00      21.00
  4.786     0.0000E+00  20.00      20.23
  4.790      70.00      110.0      7.555
  4.799      70.00      110.0      7.556
  4.803     0.0000E+00  20.00      20.49
  4.812     0.0000E+00  20.00      21.26
  4.816      70.00      110.0      7.559
  4.821     0.0000E+00  20.00      20.75
  4.830     0.0000E+00  20.00      21.52
  4.843      70.00      110.0      7.562
  4.856     0.0000E+00  20.00      22.03
  4.860      70.00      110.0      7.564
  4.865     0.0000E+00  20.00      21.78
  4.883     0.0000E+00  20.00      21.27
  4.887      70.00      110.0      7.568
  4.900     0.0000E+00  20.00      20.76
  4.900     0.0000E+00  20.00      21.53
  4.913      70.00      110.0      7.571
  4.918     0.0000E+00  20.00      21.27
  4.922      70.00      110.0      7.829
  4.936     0.0000E+00  20.00      21.27
  4.944     0.0000E+00  20.00      22.05
  4.949      70.00      110.0      7.576
  4.953     0.0000E+00  20.00      22.56
  4.962     0.0000E+00  20.00      22.05
  4.971     0.0000E+00  20.00      21.54
  4.984      70.00      110.0      7.580
  4.997     0.0000E+00  20.00      21.28
  5.006     0.0000E+00  20.00      22.05
  5.006     0.0000E+00  20.00      21.28
  5.010      70.00      110.0      7.840
  5.024     0.0000E+00  20.00      20.52
  5.028      70.00      110.0      7.842
  5.046      70.00      110.0      8.101
  5.050     0.0000E+00  20.00      21.03
  5.063      70.00      110.0      8.359
  5.068     0.0000E+00  20.00      21.04
  5.072      70.00      110.0      8.104
  5.086     0.0000E+00  20.00      20.78
  5.090      70.00      110.0      8.363
  5.103     0.0000E+00  20.00      20.27
  5.116      70.00      110.0      8.622
  5.139     0.0000E+00  20.00      20.53
  5.143      70.00      110.0      8.882
  5.156     0.0000E+00  20.00      20.54
  5.160      70.00      110.0      8.884
  5.183     0.0000E+00  20.00      20.28
  5.183     0.0000E+00  20.00      20.03
  5.187      70.00      110.0      9.144
  5.205      70.00      110.0      9.403
  5.210     0.0000E+00  20.00      19.77
  5.222      70.00      110.0      9.661
  5.227     0.0000E+00  20.00      19.26
  5.231      70.00      110.0      10.43
  5.245     0.0000E+00  20.00      19.01
  5.248      70.00      110.0      11.20
  5.271     0.0000E+00  20.00      19.53
  5.275      70.00      110.0      11.46
  5.289     0.0000E+00  20.00      19.02
  5.292      70.00      110.0      12.23
  5.298     0.0000E+00  20.00      18.76
  5.325     0.0000E+00  20.00      19.02
  5.328      70.00      110.0      12.24
  5.337      70.00      110.0      11.98
  5.360     0.0000E+00  20.00      19.28
  5.363      70.00      110.0      11.47
  5.381      70.00      110.0      11.48
  5.386     0.0000E+00  20.00      19.54
  5.398      70.00      110.0      11.99
  5.404     0.0000E+00  20.00      19.29
  5.422     0.0000E+00  20.00      19.80
  5.439     0.0000E+00  20.00      20.58
ENDDATA            361
ENDSUBENT          381
SUBENT        F0464011   20010206   20030430
BIB                  4          9
REACTION   (5-B-10(A,N)7-N-13,,DA)
SAMPLE     96% enriched 10B target was 10 keV thick for
           2.0 MeV alphas
DETECTOR   (TELES,LONGC,BF3) The neutron detecter used was
           modified long-counter with paraffin moderator 5 inches
           in diam. and 5 inches long surrounding a BF3 counter
           which was 1 inch in diam. and extended to the front
           surface of the paraffin.
STATUS     (TABLE) Table 3
ENDBIB               9
NOCOMMON
DATA                 4         11
EN         ANG-MIN    ANG-MAX    DATA
MEV        ADEG       ADEG       MB/SR
  2.160     0.0000E+00  20.00     0.9000
  2.160      70.00      110.0      1.200
  2.260     0.0000E+00  20.00     0.6000
  2.260      70.00      110.0     0.5000
  2.900     0.0000E+00  20.00      1.100
  2.900      70.00      110.0      1.200
  4.530     0.0000E+00  20.00      24.00
  4.530      70.00      110.0      9.800
  4.850     0.0000E+00  20.00      21.00
  4.850      70.00      110.0      7.600
  5.360      70.00      110.0      13.00
ENDDATA             13
ENDSUBENT           27
SUBENT        F0464012   20030519   20030930
BIB                  7         14
REACTION   (5-B-10(A,P)6-C-13,PAR,DA,G)
SAMPLE     96% enriched 10B target was 10 keV thick for
           2.0 MeV alphas
DETECTOR   (NAICR) A 1 in. x 1 in. NaI crystal mounted on a
           DuMont 6292 photomultiplier tube was used for the
           gamma-ray detector.
EN-SEC     (E-LVL-MIN,6-C-13)
           (E-LVL-MAX,6-C-13)
ERR-ANALYS (EN-ERR) Digitizing error
           (DATA-ERR) Digitizing error
COMMENT    The NaI counter was biased in such a manner that
           it would efficiently detect the 3.68 and 3.86 MeV
           gamma ray from 12C
STATUS     (CURVE) Fig. 3
ENDBIB              14
COMMON               6          3
EN-ERR     ANG-MIN    ANG-MAX    E-LVL-MIN  E-LVL-MAX  DATA-ERR
MEV        ADEG       ADEG       MEV        MEV        MB/SR
 0.005       40.00      50.00      3.68      3.86       0.01
ENDCOMMON            3
DATA                 2        199
EN         DATA
MEV        MB/SR
  2.049     0.8860
  2.084      1.071
  2.101      1.436
  2.110      1.983
  2.128      1.984
  2.145      2.531
  2.161      7.987
  2.170      11.26
  2.171      4.897
  2.179      8.352
  2.179      6.171
  2.180      4.898
  2.189      4.535
  2.197      4.900
  2.215      5.447
  2.232      6.539
  2.241      7.449
  2.258      8.724
  2.266      10.36
  2.276      11.27
  2.284      11.82
  2.301      11.45
  2.310      10.55
  2.319      9.093
  2.346      7.641
  2.346      6.550
  2.355      5.460
  2.364      4.916
  2.382      4.190
  2.391      3.646
  2.400      2.920
  2.426      2.922
  2.435      2.559
  2.453      2.197
  2.479      1.836
  2.497      1.656
  2.523      1.295
  2.549      1.661
  2.567      1.481
  2.593      1.484
  2.628      1.487
  2.637      1.488
  2.672      1.491
  2.690      1.675
  2.716      1.859
  2.743      2.043
  2.760      2.409
  2.778      2.410
  2.804      2.958
  2.821      3.505
  2.847      4.599
  2.874      5.692
  2.882      6.238
  2.900      6.785
  2.908      7.150
  2.926      7.515
  2.935      7.516
  2.952      7.517
  2.970      7.519
  2.979      7.338
  2.987      7.157
  2.996      6.976
  3.005      6.432
  3.023      6.070
  3.032      5.707
  3.049      5.709
  3.058      5.346
  3.076      4.984
  3.085      4.621
  3.111      4.442
  3.137      4.263
  3.155      4.265
  3.173      4.084
  3.190      4.086
  3.217      4.089
  3.251      4.456
  3.269      4.639
  3.295      5.005
  3.322      5.189
  3.339      5.373
  3.374      5.922
  3.392      6.287
  3.418      6.835
  3.435      7.018
  3.453      7.565
  3.488      7.751
  3.506      7.934
  3.523      7.936
  3.549      7.938
  3.567      8.122
  3.585      8.123
  3.602      8.125
  3.628      8.309
  3.655      8.312
  3.672      8.314
  3.707      8.317
  3.716      8.318
  3.725      8.319
  3.760      8.504
  3.778      8.142
  3.795      8.144
  3.795      7.962
  3.822      7.964
  3.848      7.967
  3.866      8.514
  3.883      8.698
  3.901      9.063
  3.918      9.792
  3.935      10.34
  3.953      10.70
  3.961      11.61
  3.970      12.16
  3.988      12.89
  4.014      12.89
  4.040      12.35
  4.058      11.81
  4.076      11.81
  4.093      11.26
  4.102      10.90
  4.120      10.72
  4.129      10.54
  4.146      9.995
  4.173      9.998
  4.181      10.36
  4.199      10.18
  4.216      10.37
  4.234      10.55
  4.252      10.73
  4.269      10.73
  4.287      11.10
  4.304      10.92
  4.322      11.10
  4.339      11.29
  4.357      11.29
  4.374      11.47
  4.383      11.84
  4.392      11.47
  4.410      11.66
  4.436      11.84
  4.453      12.02
  4.462      12.03
  4.480      12.57
  4.488      12.94
  4.506      13.30
  4.523      13.85
  4.558      13.85
  4.567      14.03
  4.594      13.31
  4.611      12.22
  4.629      11.68
  4.647      11.68
  4.656      11.14
  4.673      10.77
  4.708      10.60
  4.726      10.78
  4.735      10.23
  4.752      10.42
  4.779      10.60
  4.787      10.78
  4.788      10.24
  4.805      10.42
  4.823      10.42
  4.849      10.79
  4.866      10.79
  4.875      10.61
  4.893      10.43
  4.911      10.61
  4.919      10.25
  4.946      10.44
  4.963      10.62
  4.981      10.62
  4.981      10.98
  4.998      10.99
  5.016      10.81
  5.033      10.99
  5.060      10.99
  5.068      11.54
  5.077      11.54
  5.095      11.72
  5.103      11.54
  5.121      11.36
  5.130      11.36
  5.148      11.36
  5.156      11.73
  5.165      11.37
  5.182      11.73
  5.200      11.73
  5.209      11.55
  5.226      11.92
  5.244      11.92
  5.270      12.28
  5.288      12.47
  5.305      12.83
  5.332      12.47
  5.358      12.29
  5.385      12.11
  5.393      11.93
  5.411      11.75
  5.428      12.12
ENDDATA            201
ENDSUBENT          224
SUBENT        F0464013   20030519   20030930
BIB                  6         12
REACTION   (5-B-10(A,P)6-C-13,PAR,DA,G)
SAMPLE     96% enriched 10B target was 10 keV thick for
           2.0 MeV alphas
EN-SEC     (E-LVL-MIN,6-C-13)
           (E-LVL-MAX,6-C-13)
DETECTOR   (NAICR) A 1 in. x 1 in. NaI crystal mounted on a
           DuMont 6292 photomultiplier tube was used for the
           gamma-ray detector.
COMMENT    The NaI counter was biased in such a manner that
           it would efficiently detect the 3.68 and 3.86 MeV
           gamma ray from 12C
STATUS     (TABLE) Table 3
ENDBIB              12
COMMON               4          3
ANG-MIN    ANG-MAX    E-LVL-MIN  E-LVL-MAX
ADEG       ADEG       MEV        MEV
 40.00      50.00       3.68       3.86
ENDCOMMON            3
DATA                 2          8
EN         DATA
MEV        MB/SR
  2.160      12.00
  2.260      12.00
  2.900      8.000
  3.600      8.700
  3.940      13.00
  4.530      14.00
  4.850      11.00
  5.360      13.00
ENDDATA             10
ENDSUBENT           31
SUBENT        F0464014   20010206   20030430
BIB                  2          2
REACTION   (5-B-10(A,N),,WID)
STATUS     (TABLE) Table 3
ENDBIB               2
NOCOMMON
DATA                 2          8
EN-RES     DATA
MEV        KEV
  2.160      30.00
  2.260      200.0
  2.900      200.0
  3.600      400.0
  3.940      200.0
  4.530      200.0
  4.850      50.00
  5.360      100.0
ENDDATA             10
ENDSUBENT           17
SUBENT        F0464015   20010206   20030430
BIB                  6         17
REACTION   (5-B-11(A,N)7-N-14,,DA)
SAMPLE     An evaporated normal boron target was 15 keV thick for
           2.0 MeV alphas
DETECTOR   (TELES,LONGC,BF3) The neutron detecter used was
           modified long-counter with paraffin moderator 5 inches
           in diam. and 5 inches long surrounding a BF3 counter
           which was 1 inch in diam. and extended to the front
           surface of the paraffin.
           (NAICR) A 1 in. x 1 in. NaI crystal mounted on a
           DuMont 6292 photomultiplier tube was used for the
           gamma-ray detector.
COMMENT    The NaI counter was biased in such a manner that it
           would efficiently detect the 3.68 and 3.86 MeV gamma
           ray from 13C
ERR-ANALYS (EN-ERR) Digitizing error
           (DATA-ERR) Digitizing error
STATUS     (CURVE) Fig. 4
ENDBIB              17
COMMON               2          3
EN-ERR     DATA-ERR
MEV        MB/SR
  0.01      0.06
ENDCOMMON            3
DATA                 4        379
EN         ANG-MIN    ANG-MAX    DATA
MEV        ADEG       ADEG       MB/SR
  1.038      70.00      110.0      63.00
  1.855     0.0000E+00  20.00      1.375
  1.878      70.00      110.0      2.757
  1.889     0.0000E+00  20.00      2.072
  1.889      70.00      110.0      3.104
  1.901     0.0000E+00  20.00      3.299
  1.910      70.00      110.0      1.363
  1.933      70.00      110.0      4.317
  1.946     0.0000E+00  20.00      5.748
  1.956      70.00      110.0      5.185
  1.956      70.00      110.0      6.054
  1.956      70.00      110.0      6.228
  1.958     0.0000E+00  20.00      7.501
  1.968      70.00      110.0      8.314
  1.982     0.0000E+00  20.00      11.18
  1.984     0.0000E+00  20.00      15.92
  1.990      70.00      110.0      9.182
  1.998     0.0000E+00  20.00      21.18
  2.001      70.00      110.0      8.137
  2.010     0.0000E+00  20.00      23.11
  2.011      70.00      110.0      6.050
  2.022      70.00      110.0      4.831
  2.031     0.0000E+00  20.00      20.65
  2.039     0.0000E+00  20.00      16.09
  2.043      70.00      110.0      3.786
  2.047     0.0000E+00  20.00      11.35
  2.054      70.00      110.0      3.090
  2.057     0.0000E+00  20.00      8.540
  2.065      70.00      110.0      2.741
  2.067     0.0000E+00  20.00      6.433
  2.078     0.0000E+00  20.00      5.379
  2.078     0.0000E+00  20.00      4.678
  2.087      70.00      110.0      2.565
  2.088     0.0000E+00  20.00      4.150
  2.096      70.00      110.0      2.044
  2.099     0.0000E+00  20.00      3.798
  2.109      70.00      110.0      2.042
  2.120      70.00      110.0      1.693
  2.121     0.0000E+00  20.00      3.444
  2.142      70.00      110.0      1.517
  2.143     0.0000E+00  20.00      3.090
  2.164     0.0000E+00  20.00      2.736
  2.164      70.00      110.0      1.689
  2.197     0.0000E+00  20.00      2.732
  2.208      70.00      110.0      1.685
  2.230     0.0000E+00  20.00      2.552
  2.241      70.00      110.0      1.683
  2.263     0.0000E+00  20.00      2.547
  2.274      70.00      110.0      1.854
  2.296     0.0000E+00  20.00      2.367
  2.296      70.00      110.0      1.678
  2.330      70.00      110.0      1.675
  2.340     0.0000E+00  20.00      2.186
  2.341      70.00      110.0      1.500
  2.373     0.0000E+00  20.00      2.532
  2.374      70.00      110.0      1.845
  2.396      70.00      110.0      1.669
  2.407     0.0000E+00  20.00      2.703
  2.429      70.00      110.0      2.014
  2.440     0.0000E+00  20.00      2.874
  2.440      70.00      110.0      2.013
  2.473     0.0000E+00  20.00      3.220
  2.473      70.00      110.0      2.185
  2.484      70.00      110.0      2.358
  2.495     0.0000E+00  20.00      3.568
  2.517     0.0000E+00  20.00      4.267
  2.517      70.00      110.0      2.876
  2.540     0.0000E+00  20.00      5.492
  2.551      70.00      110.0      3.569
  2.562      70.00      110.0      5.133
  2.574      70.00      110.0      6.698
  2.575     0.0000E+00  20.00      8.118
  2.596      70.00      110.0      7.565
  2.598     0.0000E+00  20.00      10.40
  2.629      70.00      110.0      6.867
  2.631     0.0000E+00  20.00      10.39
  2.651     0.0000E+00  20.00      7.406
  2.651      70.00      110.0      5.822
  2.672     0.0000E+00  20.00      4.772
  2.672      70.00      110.0      4.255
  2.694      70.00      110.0      3.557
  2.704     0.0000E+00  20.00      3.715
  2.716      70.00      110.0      2.860
  2.726     0.0000E+00  20.00      3.186
  2.738      70.00      110.0      2.684
  2.748     0.0000E+00  20.00      2.832
  2.770     0.0000E+00  20.00      2.478
  2.772      70.00      110.0      4.942
  2.792     0.0000E+00  20.00      2.650
  2.804      70.00      110.0      2.852
  2.826      70.00      110.0      2.676
  2.836     0.0000E+00  20.00      2.820
  2.869     0.0000E+00  20.00      2.640
  2.871      70.00      110.0      2.847
  2.893      70.00      110.0      3.019
  2.902     0.0000E+00  20.00      2.460
  2.924     0.0000E+00  20.00      2.808
  2.938      70.00      110.0      5.276
  2.938      70.00      110.0      4.058
  2.947     0.0000E+00  20.00      4.383
  2.948      70.00      110.0      4.579
  2.949      70.00      110.0      3.536
  2.958     0.0000E+00  20.00      4.908
  2.959     0.0000E+00  20.00      4.382
  2.968     0.0000E+00  20.00      3.679
  2.970      70.00      110.0      4.751
  2.971      70.00      110.0      6.664
  2.979     0.0000E+00  20.00      3.326
  2.980     0.0000E+00  20.00      4.203
  2.993      70.00      110.0      7.184
  2.998      70.00      110.0      6.314
  3.003     0.0000E+00  20.00      7.533
  3.003      70.00      110.0      4.227
  3.004     0.0000E+00  20.00      8.936
  3.014      70.00      110.0      3.356
  3.014      70.00      110.0      3.182
  3.016     0.0000E+00  20.00      9.461
  3.018     0.0000E+00  20.00      6.655
  3.024     0.0000E+00  20.00      4.724
  3.025     0.0000E+00  20.00      4.022
  3.034     0.0000E+00  20.00      3.845
  3.036      70.00      110.0      3.528
  3.056     0.0000E+00  20.00      3.842
  3.058      70.00      110.0      3.352
  3.079     0.0000E+00  20.00      4.014
  3.092      70.00      110.0      3.697
  3.101     0.0000E+00  20.00      4.187
  3.123     0.0000E+00  20.00      4.184
  3.125      70.00      110.0      3.695
  3.125      70.00      110.0      3.869
  3.145     0.0000E+00  20.00      4.532
  3.169      70.00      110.0      4.039
  3.178     0.0000E+00  20.00      4.702
  3.189     0.0000E+00  20.00      5.052
  3.191      70.00      110.0      4.037
  3.213      70.00      110.0      4.557
  3.234     0.0000E+00  20.00      5.923
  3.236      70.00      110.0      5.772
  3.245     0.0000E+00  20.00      7.149
  3.247     0.0000E+00  20.00      10.66
  3.247      70.00      110.0      6.119
  3.247      70.00      110.0      6.467
  3.257      70.00      110.0      5.075
  3.268      70.00      110.0      4.552
  3.270     0.0000E+00  20.00      12.76
  3.280     0.0000E+00  20.00      11.00
  3.290      70.00      110.0      4.202
  3.291     0.0000E+00  20.00      9.599
  3.301     0.0000E+00  20.00      7.492
  3.301     0.0000E+00  20.00      6.440
  3.311     0.0000E+00  20.00      5.737
  3.312      70.00      110.0      4.374
  3.323      70.00      110.0      4.547
  3.335      70.00      110.0      4.894
  3.344     0.0000E+00  20.00      5.908
  3.357      70.00      110.0      5.414
  3.366     0.0000E+00  20.00      5.554
  3.379      70.00      110.0      6.977
  3.388     0.0000E+00  20.00      6.077
  3.401      70.00      110.0      5.932
  3.412      70.00      110.0      6.279
  3.421     0.0000E+00  20.00      6.248
  3.434      70.00      110.0      6.451
  3.443     0.0000E+00  20.00      6.245
  3.454     0.0000E+00  20.00      6.594
  3.468      70.00      110.0      6.622
  3.476     0.0000E+00  20.00      6.591
  3.478      70.00      110.0      6.273
  3.488     0.0000E+00  20.00      7.116
  3.490      70.00      110.0      7.142
  3.521     0.0000E+00  20.00      7.112
  3.523      70.00      110.0      7.139
  3.532     0.0000E+00  20.00      7.461
  3.534      70.00      110.0      7.486
  3.556      70.00      110.0      8.006
  3.565     0.0000E+00  20.00      7.807
  3.567      70.00      110.0      8.179
  3.568      70.00      110.0      9.222
  3.576     0.0000E+00  20.00      8.156
  3.579      70.00      110.0      10.27
  3.587     0.0000E+00  20.00      8.330
  3.589      70.00      110.0      9.917
  3.590      70.00      110.0      10.61
  3.590      70.00      110.0      8.699
  3.599     0.0000E+00  20.00      9.381
  3.599     0.0000E+00  20.00      12.19
  3.601     0.0000E+00  20.00      13.94
  3.623     0.0000E+00  20.00      12.71
  3.623      70.00      110.0      9.739
  3.632     0.0000E+00  20.00      11.48
  3.633     0.0000E+00  20.00      10.78
  3.634      70.00      110.0      9.564
  3.643     0.0000E+00  20.00      10.08
  3.654     0.0000E+00  20.00      9.900
  3.655      70.00      110.0      7.824
  3.667      70.00      110.0      8.344
  3.687     0.0000E+00  20.00      10.25
  3.689      70.00      110.0      7.995
  3.699     0.0000E+00  20.00      10.77
  3.711      70.00      110.0      8.340
  3.720     0.0000E+00  20.00      10.42
  3.721      70.00      110.0      8.167
  3.722      70.00      110.0      9.035
  3.722      70.00      110.0      9.209
  3.732     0.0000E+00  20.00      11.47
  3.744      70.00      110.0      9.729
  3.744      70.00      110.0      9.903
  3.755     0.0000E+00  20.00      13.22
  3.756     0.0000E+00  20.00      14.10
  3.766      70.00      110.0      9.379
  3.767     0.0000E+00  20.00      15.15
  3.777      70.00      110.0      9.031
  3.778     0.0000E+00  20.00      15.50
  3.810     0.0000E+00  20.00      13.21
  3.810      70.00      110.0      9.028
  3.820     0.0000E+00  20.00      12.16
  3.820     0.0000E+00  20.00      12.34
  3.843      70.00      110.0      9.025
  3.853     0.0000E+00  20.00      12.15
  3.866     0.0000E+00  20.00      14.10
  3.866      70.00      110.0      9.371
  3.875     0.0000E+00  20.00      12.15
  3.877      70.00      110.0      9.370
  3.908     0.0000E+00  20.00      11.80
  3.910      70.00      110.0      9.715
  3.910      70.00      110.0      10.76
  3.919     0.0000E+00  20.00      11.27
  3.930     0.0000E+00  20.00      11.09
  3.933      70.00      110.0      12.15
  3.944      70.00      110.0      12.49
  3.952     0.0000E+00  20.00      11.09
  3.955      70.00      110.0      12.49
  3.963     0.0000E+00  20.00      11.79
  3.966      70.00      110.0      12.15
  3.966      70.00      110.0      13.19
  3.976      70.00      110.0      11.80
  3.986     0.0000E+00  20.00      12.49
  3.986     0.0000E+00  20.00      12.14
  3.988      70.00      110.0      11.62
  3.999      70.00      110.0      11.27
  4.008     0.0000E+00  20.00      12.48
  4.021      70.00      110.0      11.44
  4.030     0.0000E+00  20.00      13.01
  4.032      70.00      110.0      11.10
  4.054      70.00      110.0      11.09
  4.063     0.0000E+00  20.00      13.00
  4.076      70.00      110.0      11.09
  4.096     0.0000E+00  20.00      13.35
  4.098      70.00      110.0      11.09
  4.118     0.0000E+00  20.00      13.35
  4.120      70.00      110.0      12.31
  4.153      70.00      110.0      10.91
  4.162     0.0000E+00  20.00      13.34
  4.173     0.0000E+00  20.00      12.99
  4.175      70.00      110.0      11.08
  4.184     0.0000E+00  20.00      12.63
  4.197      70.00      110.0      10.91
  4.206     0.0000E+00  20.00      11.75
  4.228     0.0000E+00  20.00      12.28
  4.241      70.00      110.0      11.25
  4.241      70.00      110.0      11.43
  4.250     0.0000E+00  20.00      12.63
  4.253      70.00      110.0      12.47
  4.254      70.00      110.0      16.12
  4.262     0.0000E+00  20.00      13.68
  4.266      70.00      110.0      19.25
  4.267      70.00      110.0      15.60
  4.273     0.0000E+00  20.00      15.43
  4.275      70.00      110.0      13.34
  4.297     0.0000E+00  20.00      14.90
  4.297     0.0000E+00  20.00      17.53
  4.297      70.00      110.0      12.12
  4.305     0.0000E+00  20.00      12.62
  4.308      70.00      110.0      12.12
  4.308      70.00      110.0      11.94
  4.330      70.00      110.0      12.46
  4.331      70.00      110.0      13.85
  4.331      70.00      110.0      15.59
  4.337     0.0000E+00  20.00      11.03
  4.342      70.00      110.0      15.77
  4.353      70.00      110.0      16.46
  4.354      70.00      110.0      16.81
  4.360     0.0000E+00  20.00      12.61
  4.360     0.0000E+00  20.00      11.91
  4.364      70.00      110.0      14.02
  4.373     0.0000E+00  20.00      14.54
  4.374      70.00      110.0      12.28
  4.375      70.00      110.0      11.41
  4.383     0.0000E+00  20.00      14.19
  4.385     0.0000E+00  20.00      13.48
  4.385      70.00      110.0      10.89
  4.393     0.0000E+00  20.00      12.78
  4.393     0.0000E+00  20.00      12.96
  4.403     0.0000E+00  20.00      11.38
  4.407      70.00      110.0      12.11
  4.424     0.0000E+00  20.00      8.567
  4.424     0.0000E+00  20.00      9.795
  4.425     0.0000E+00  20.00      8.040
  4.429      70.00      110.0      11.93
  4.434     0.0000E+00  20.00      7.513
  4.451      70.00      110.0      9.843
  4.456     0.0000E+00  20.00      7.159
  4.462      70.00      110.0      9.842
  4.484      70.00      110.0      9.493
  4.489     0.0000E+00  20.00      7.330
  4.517      70.00      110.0      9.490
  4.522     0.0000E+00  20.00      7.150
  4.528      70.00      110.0      9.141
  4.561      70.00      110.0      9.312
  4.566     0.0000E+00  20.00      7.495
  4.572      70.00      110.0      8.963
  4.600     0.0000E+00  20.00      7.666
  4.605      70.00      110.0      9.134
  4.638      70.00      110.0      9.132
  4.644     0.0000E+00  20.00      8.010
  4.655     0.0000E+00  20.00      8.360
  4.660      70.00      110.0      9.130
  4.682      70.00      110.0      9.128
  4.688     0.0000E+00  20.00      8.881
  4.704      70.00      110.0      9.300
  4.722     0.0000E+00  20.00      9.754
  4.726      70.00      110.0      9.472
  4.733     0.0000E+00  20.00      10.28
  4.737      70.00      110.0      9.123
  4.759      70.00      110.0      9.295
  4.766     0.0000E+00  20.00      10.45
  4.781      70.00      110.0      9.641
  4.799     0.0000E+00  20.00      10.80
  4.815      70.00      110.0      9.812
  4.821     0.0000E+00  20.00      10.79
  4.826      70.00      110.0      9.637
  4.854     0.0000E+00  20.00      10.79
  4.870      70.00      110.0      9.808
  4.870      70.00      110.0      9.981
  4.870      70.00      110.0      10.50
  4.887     0.0000E+00  20.00      10.78
  4.892      70.00      110.0      10.50
  4.898     0.0000E+00  20.00      10.96
  4.903      70.00      110.0      11.02
  4.904      70.00      110.0      12.41
  4.915      70.00      110.0      13.28
  4.921     0.0000E+00  20.00      12.53
  4.921     0.0000E+00  20.00      11.66
  4.926      70.00      110.0      13.80
  4.937      70.00      110.0      13.80
  4.944     0.0000E+00  20.00      13.76
  4.946     0.0000E+00  20.00      17.79
  4.947      70.00      110.0      12.76
  4.948     0.0000E+00  20.00      22.88
  4.948     0.0000E+00  20.00      20.42
  4.948      70.00      110.0      12.58
  4.949     0.0000E+00  20.00      23.76
  4.949      70.00      110.0      12.06
  4.958      70.00      110.0      10.84
  4.969      70.00      110.0      10.49
  4.970      70.00      110.0      10.15
  4.980     0.0000E+00  20.00      22.35
  4.981     0.0000E+00  20.00      20.77
  4.982     0.0000E+00  20.00      20.07
  4.991      70.00      110.0      9.623
  4.998     0.0000E+00  20.00      16.91
  5.000     0.0000E+00  20.00      15.86
  5.000     0.0000E+00  20.00      16.21
  5.001     0.0000E+00  20.00      15.51
  5.010     0.0000E+00  20.00      14.80
  5.011     0.0000E+00  20.00      14.27
  5.013      70.00      110.0      9.274
  5.035      70.00      110.0      9.098
  5.043     0.0000E+00  20.00      14.10
  5.054     0.0000E+00  20.00      13.57
  5.057      70.00      110.0      9.096
  5.065     0.0000E+00  20.00      13.04
  5.079      70.00      110.0      8.920
  5.098     0.0000E+00  20.00      12.86
  5.101      70.00      110.0      9.266
  5.106     0.0000E+00  20.00      12.34
  5.112      70.00      110.0      8.918
  5.119     0.0000E+00  20.00      11.98
  5.141     0.0000E+00  20.00      11.63
ENDDATA            381
ENDSUBENT          407
SUBENT        F0464016   20010206   20030430
BIB                  5         15
REACTION   (5-B-11(A,N)7-N-14,,DA)
SAMPLE     An evaporated normal boron target was 15 keV thick for
           2.0 MeV alphas
DETECTOR   (TELES,LONGC,BF3) The neutron detecter used was
           modified long-counter with paraffin moderator 5 inches
           in diam. and 5 inches long surrounding a BF3 counter
           which was 1 inch in diam. and extended to the front
           surface of the paraffin.
           (NAICR) A 1 in. x 1 in. NaI crystal mounted on a
           DuMont 6292 photomultiplier tube was used for the
           gamma-ray detector.
COMMENT    The NaI counter was biased in such a manner that it
           would efficiently detect the 3.68 and 3.86 MeV gamma
           ray from 13C
STATUS     (TABLE) Table 4
ENDBIB              15
NOCOMMON
DATA                 5         22
EN         ANG-MIN    ANG-MAX    DATA       DATA-MIN
MEV        ADEG       ADEG       MB/SR      MB/SR
  2.060     0.0000E+00  20.00      23.00
  2.060      70.00      110.0      9.400
  2.600     0.0000E+00  20.00      11.00
  2.600      70.00      110.0      7.800
  2.930     0.0000E+00  20.00                 8.900
  2.930      70.00      110.0                 8.200
  2.970     0.0000E+00  20.00      17.70
  2.970      70.00      110.0      13.70
  3.230     0.0000E+00  20.00      13.00
  3.230      70.00      110.0      6.600
  3.540     0.0000E+00  20.00      14.00
  3.540      70.00      110.0      11.00
  3.720     0.0000E+00  20.00      16.00
  3.720      70.00      110.0      10.00
  3.920     0.0000E+00  20.00      11.00
  3.920      70.00      110.0      13.00
  4.250     0.0000E+00  20.00      18.00
  4.250      70.00      110.0      18.00
  4.340     0.0000E+00  20.00      14.00
  4.340      70.00      110.0      17.00
  5.000     0.0000E+00  20.00      24.00
  5.000      70.00      110.0      14.00
ENDDATA             24
ENDSUBENT           44
SUBENT        F0464017   20010206   20030430
BIB                  2          2
REACTION   (5-B-11(A,N),,WID)
STATUS     (TABLE) Table 4
ENDBIB               2
NOCOMMON
DATA                 3         11
EN-RES     DATA       DATA-MAX
MEV        KEV        KEV
  2.060      59.00
  2.600      90.00
  2.930                 3.000
  2.970      7.000
  3.230      25.00
  3.540      20.00
  3.720      40.00
  3.920      70.00
  4.250      10.00
  4.340      35.00
  5.000      72.00
ENDDATA             13
ENDSUBENT           20
SUBENT        F0464018   20010206   20030430
BIB                  6         19
REACTION   (8-O-18(A,N)10-NE-21,,DA)
SAMPLE     The targets were prepared by heating a tungsten disk
           in induction heater with a sample of enriched 18O (40%)
           The target thickness varies from 90 keV to 130keV.
DETECTOR   (TELES,LONGC,BF3) The neutron detecter used was
           modified long-counter with paraffin moderator 5 inches
           in diam. and 5 inches long surrounding a BF3 counter
           which was 1 inch in diam. and extended to the front
           surface of the paraffin.
           (NAICR) A 1 in. x 1 in. NaI crystal mounted on a
           DuMont 6292 photomultiplier tube was used for the
           gamma-ray detector.
MONITOR    The cross section wre obtained by estimating the
           amount of oxygen in the target from the yield
           obtained in measuring the 16O(d,n) threshold.
ERR-ANALYS (EN-ERR) Digitizing error
           (DATA-ERR) Digitizing error
           (DATA-ERR1) Estimated error in cross sections.
STATUS     (CURVE) Fig.6
ENDBIB              19
COMMON               5          3
ANG-MIN    ANG-MAX    EN-ERR     DATA-ERR   DATA-ERR1
ADEG       ADEG       MEV        MB/SR      PER-CENT
  0.0       30.0          0.017      0.02        50.0
ENDCOMMON            3
DATA                 2        309
EN         DATA
MEV        MB/SR
  1.897     0.9730E-01
  1.915     0.6930E-01
  1.936     0.9090E-01
  1.955     0.1018
  1.974     0.9390E-01
  1.995     0.1142
  2.014     0.1076
  2.033     0.7830E-01
  2.051     0.8250E-01
  2.073     0.6660E-01
  2.092     0.5740E-01
  2.112     0.7230E-01
  2.131     0.6980E-01
  2.142     0.7120E-01
  2.151     0.9400E-01
  2.161     0.8870E-01
  2.170     0.1357
  2.180     0.1197
  2.188     0.1586
  2.198     0.1560
  2.208     0.2779
  2.217     0.3182
  2.228     0.3303
  2.237     0.2996
  2.246     0.3264
  2.255     0.3546
  2.264     0.3493
  2.282     0.3495
  2.286     0.3214
  2.297     0.3496
  2.308     0.3510
  2.315     0.3082
  2.325     0.3030
  2.335     0.3164
  2.351     0.3139
  2.364     0.3287
  2.374     0.3301
  2.382     0.3637
  2.393     0.3423
  2.404     0.3585
  2.412     0.3639
  2.425     0.3694
  2.432     0.3400
  2.441     0.3414
  2.451     0.4205
  2.461     0.4447
  2.469     0.4903
  2.480     0.9804
  2.489      1.033
  2.499      1.060
  2.510      1.145
  2.520      1.212
  2.527      1.200
  2.542      1.247
  2.547      1.344
  2.555      1.788
  2.558      1.700
  2.562      2.350
  2.572      2.447
  2.580      2.678
  2.581      2.719
  2.591      2.756
  2.601      2.722
  2.611      2.531
  2.622      2.496
  2.631      2.451
  2.643      2.238
  2.651      2.265
  2.661      2.166
  2.671      1.986
  2.683      1.915
  2.693      1.859
  2.704      1.774
  2.714      1.900
  2.719      2.625
  2.727      2.913
  2.737      3.003
  2.748      3.141
  2.758      3.042
  2.761      3.116
  2.767      3.062
  2.775      3.121
  2.797      3.077
  2.806      2.854
  2.816      2.866
  2.825      2.733
  2.835      2.640
  2.848      2.199
  2.860      2.139
  2.867      2.071
  2.875      2.181
  2.884      2.316
  2.893      2.719
  2.902      3.256
  2.913      3.820
  2.922      4.758
  2.932      5.563
  2.941      6.314
  2.951      6.583
  2.958      6.557
  2.971      6.746
  2.987      6.695
  3.000      6.644
  3.009      6.083
  3.020      5.603
  3.031      5.256
  3.039      4.615
  3.049      4.081
  3.059      3.547
  3.067      2.879
  3.079      2.426
  3.087      2.052
  3.096      2.027
  3.109      1.734
  3.128      1.925
  3.136      2.033
  3.147      2.623
  3.156      2.946
  3.166      3.777
  3.176      4.582
  3.186      5.628
  3.195      6.646
  3.204      7.611
  3.213      8.469
  3.223      8.819
  3.233      9.597
  3.243      10.24
  3.260      10.24
  3.271      10.86
  3.284      10.76
  3.295      10.60
  3.306      10.54
  3.317      10.49
  3.321      10.01
  3.332      9.986
  3.341      9.774
  3.350      9.106
  3.361      8.840
  3.370      8.413
  3.378      8.226
  3.392      7.613
  3.400      7.212
  3.411      7.268
  3.419      6.733
  3.431      6.333
  3.440      6.041
  3.452      5.774
  3.461      5.562
  3.480      5.832
  3.490      6.262
  3.490      5.646
  3.497      6.906
  3.507      7.657
  3.516      8.408
  3.526      9.105
  3.537      10.04
  3.546      10.29
  3.556      11.01
  3.566      11.71
  3.575      12.35
  3.586      13.64
  3.596      14.71
  3.605      16.13
  3.614      16.96
  3.623      17.04
  3.629      17.29
  3.633      17.50
  3.642      18.17
  3.654      18.36
  3.664      18.07
  3.670      18.26
  3.681      18.15
  3.695      18.13
  3.704      17.51
  3.715      16.82
  3.723      15.96
  3.734      15.32
  3.743      14.04
  3.753      13.07
  3.762      12.25
  3.774      11.66
  3.784      10.64
  3.802      9.923
  3.811      9.898
  3.823      9.792
  3.834      9.767
  3.852      9.904
  3.860      10.63
  3.871      10.68
  3.881      11.19
  3.890      12.40
  3.901      13.34
  3.910      14.54
  3.918      15.43
  3.930      15.43
  3.939      15.48
  3.950      15.33
  3.961      15.22
  3.970      15.11
  3.979      14.34
  3.989      13.54
  3.997      12.87
  4.008      11.91
  4.016      11.00
  4.027      10.22
  4.038      9.717
  4.047      9.424
  4.055      9.774
  4.070      9.776
  4.078      10.98
  4.086      12.27
  4.097      13.61
  4.106      14.33
  4.115      15.38
  4.124      16.18
  4.135      16.88
  4.145      17.63
  4.152      17.98
  4.162      18.49
  4.175      18.68
  4.185      18.79
  4.193      19.54
  4.200      19.70
  4.206      19.78
  4.213      21.28
  4.224      22.70
  4.233      25.27
  4.242      27.31
  4.252      29.85
  4.262      31.49
  4.271      33.42
  4.280      34.76
  4.290      35.78
  4.301      37.25
  4.309      37.41
  4.319      38.38
  4.327      39.64
  4.337      39.88
  4.346      41.75
  4.355      42.56
  4.366      44.43
  4.375      46.15
  4.384      46.23
  4.395      47.68
  4.403      48.54
  4.413      49.47
  4.423      49.34
  4.433      49.40
  4.441      48.65
  4.449      46.54
  4.460      45.25
  4.471      42.84
  4.481      40.17
  4.494      37.31
  4.502      33.53
  4.514      30.83
  4.523      28.80
  4.531      27.70
  4.542      27.65
  4.551      27.92
  4.563      27.89
  4.572      27.25
  4.582      27.95
  4.589      28.51
  4.603      28.51
  4.611      29.64
  4.620      30.02
  4.629      30.66
  4.639      31.17
  4.649      30.61
  4.659      30.37
  4.666      29.54
  4.680      29.52
  4.685      28.63
  4.697      28.26
  4.707      27.49
  4.715      25.93
  4.724      25.61
  4.735      25.27
  4.744      25.00
  4.755      25.14
  4.764      24.58
  4.774      24.39
  4.785      24.77
  4.792      24.23
  4.804      23.99
  4.811      24.10
  4.822      24.13
  4.837      24.21
  4.841      23.68
  4.850      23.47
  4.864      23.39
  4.873      24.57
  4.884      26.66
  4.892      28.02
  4.901      29.42
  4.915      29.58
  4.920      30.33
  4.929      30.95
  4.938      32.13
  4.950      32.82
  4.959      34.00
  4.969      34.97
  4.977      35.13
  4.985      35.51
  4.999      35.56
  5.007      34.84
  5.017      34.60
  5.028      33.00
ENDDATA            311
ENDSUBENT          339
SUBENT        F0464019   20010206   20030430
BIB                  5         16
REACTION   (8-O-18(A,N)10-NE-21,,DA)
SAMPLE     The targets were prepared by heating a tungsten disk
           in induction heater with a sample of enriched 18O (40%)
           The target thickness varies from 90 keV to 130keV.
DETECTOR   (TELES,LONGC,BF3) The neutron detecter used was
           modified long-counter with paraffin moderator 5 inches
           in diam. and 5 inches long surrounding a BF3 counter
           which was 1 inch in diam. and extended to the front
           surface of the paraffin.
           (NAICR) A 1 in. x 1 in. NaI crystal mounted on a
           DuMont 6292 photomultiplier tube was used for the
           gamma-ray detector.
MONITOR    The cross section wre obtained by estimating the
           amount of oxygen in the target from the yield
           obtained in measuring the 16O(d,n) threshold.
STATUS     (TABLE) Table 5
ENDBIB              16
COMMON               2          3
ANG-MIN    ANG-MAX
ADEG       ADEG
 0.0000E+00  30.00
ENDCOMMON            3
DATA                 2         13
EN         DATA
MEV        MB/SR
  2.210     0.3000
  2.470     0.9000
  2.560      2.300
  2.720      2.600
  2.940      5.200
  3.240      9.200
  3.630      16.00
  3.910      13.00
  4.120      16.00
  4.220      29.00
  4.330      42.00
  4.520      27.00
  4.820      31.00
ENDDATA             15
ENDSUBENT           40
SUBENT        F0464020   20010206   20030430
BIB                  2          2
REACTION   (8-O-18(A,N),,WID)
STATUS     (TABLE) Table 5
ENDBIB               2
NOCOMMON
DATA                 3         13
EN-RES     DATA       DATA-MAX
MEV        KEV        KEV
  2.210      30.00
  2.470                 15.00
  2.560      25.00
  2.720                 15.00
  2.940      40.00
  3.240      70.00
  3.630      200.0
  3.910      40.00
  4.120      40.00
  4.220      40.00
  4.330      100.0
  4.520      70.00
  4.820      40.00
ENDDATA             15
ENDSUBENT           22
ENDENTRY            20
