ENTRY            10249   20011130   20020117
SUBENT        10249001   20011130   20020117
BIB                 12         28
INSTITUTE  (1USAORL)
REFERENCE  (J,NSE,52,46,197309)
AUTHOR     (R.B.Perez,G.de Saussure,E.G.Silver,R.W.Ingle,H.Weaver)
TITLE      Simultaneous Measurement of the Neutron Fission and
            Capture Cross Section for Uranium-235 for Neutron
            Energies from 8 eV to 10 keV
FACILITY   (LINAC) Oak Ridge Electron Linac (ORELA)
SAMPLE     235U fission chamber containing U3O8, 3.20+-0.05 g of
            235U.
           Isotopic composition: 234U (0.006%), 235U (99.702%),
                                 236U (0.021%), 238U (0.271%).
           Capture resonance at 36.7 eV is probably due to an
            impurity which could not be identified with certainty.
METHOD     (TOF). Flight path = 39.70 m.
DETECTOR   (FISCH,STANK) 235U fission chamber surrounded by large
            liquid scintillator tank. Fission chamber detects
            only fissions while the scintillator tank is
            sensitive to gamma-rays from fission and capture.
           BF3 chamber used to determine neutron flux
MONITOR    (5-B-10(N,A)3-LI-7,,SIG) For flux determination.
CORRECTION Corrected for dead time, background, self-shielding.
STATUS     (APRVD) Approved by G. de Saussure, 22 February 1973.
           Data received on magnetic tape from G.De Saussure,
            27 November 1972.
HISTORY    (19730115C)
           (19750702U) Reference changed
           (19821018A) Converted to REACTION formalism
           (20011130A) Converted to new date formats, lower case.
ENDBIB              28
NOCOMMON             0          0
ENDSUBENT           31
SUBENT        10249002   20011130   20020117
BIB                  3          3
REACTION   (92-U-235(N,F),,SIG,,RTE)
MONITOR    (92-U-235(N,F),,INT)
ERR-ANALYS Uncertainty estimated to be about 3%.
ENDBIB               3
COMMON               3          3
EN-NRM-MIN EN-NRM-MAX MONIT
EV         EV         B*EV
 100.       200.       2103.
ENDCOMMON            3
DATA                 2       2430
EN         DATA
EV         B*RT-EV
   8.050      15.667
   8.070      13.081
   8.091      14.624
   8.111      16.520
   8.132      17.932
   8.153      19.696
   8.173      21.102
   8.194      18.818
   8.215      23.213
   8.236      27.955
   8.257      32.438
   8.279      34.537
   8.300      37.846
   8.321      37.784
   8.343      43.663
   8.364      51.710
   8.386      49.597
   8.407      61.038
   8.429      74.036
   8.451      80.850
   8.473      91.652
   8.495     104.348
   8.517     130.498
   8.539     148.553
   8.562     180.568
   8.584     229.990
   8.607     284.033
   8.629     367.005
   8.652     505.152
   8.675     658.110
   8.697     927.386
   8.720    1218.259
   8.743    1522.355
   8.766    1735.416
   8.790    1871.784
   8.813    1852.713
   8.836    1675.726
   8.860    1411.454
   8.883    1138.748
   8.907     933.295
   8.931     693.232
   8.954     583.197
   8.978     470.507
   9.002     397.296
   9.027     348.047
   9.051     297.207
   9.075     263.215
   9.100     248.020
   9.124     220.528
   9.149     204.285
   9.173     205.089
   9.198     210.899
   9.223     237.618
   9.248     285.973
   9.273     320.554
   9.299     341.306
   9.324     338.743
   9.349     290.539
   9.375     254.265
   9.401     210.651
   9.426     171.923
   9.452     139.863
   9.478     125.057
   9.504     110.415
   9.530     104.681
   9.557      96.970
   9.583      93.524
   9.610      88.702
   9.636      89.891
   9.663      84.211
   9.690      88.975
   9.717      87.380
   9.744      92.607
   9.771      84.035
   9.798      80.117
   9.826      70.084
   9.853      67.195
   9.881      58.922
   9.909      54.294
   9.936      51.347
   9.964      44.964
   9.992      42.662
  10.021      37.719
  10.049      39.994
  10.078      51.345
  10.106      62.490
  10.135      87.185
  10.164     103.152
  10.193     125.515
  10.222     124.093
  10.251     115.728
  10.280      87.702
  10.310      77.222
  10.339      62.270
  10.369      55.838
  10.399      51.204
  10.429      44.992
  10.459      47.572
  10.489      40.348
  10.519      38.604
  10.550      40.758
  10.581      42.615
  10.611      38.181
  10.642      41.186
  10.673      36.551
  10.704      41.776
  10.736      40.120
  10.767      40.447
  10.799      42.999
  10.830      43.423
  10.862      44.284
  10.894      44.419
  10.926      40.950
  10.959      39.150
  10.991      38.502
  11.024      38.854
  11.056      38.510
  11.089      44.372
  11.122      39.792
  11.155      39.695
  11.189      38.230
  11.222      39.588
  11.256      37.367
  11.289      41.522
  11.323      43.883
  11.357      44.644
  11.392      48.445
  11.426      51.904
  11.460      52.561
  11.495      59.215
  11.530      73.733
  11.565     100.282
  11.600     149.423
  11.635     223.429
  11.671     259.102
  11.706     237.898
  11.742     171.039
  11.769     110.624
  11.787      87.190
  11.805      65.949
  11.823      59.547
  11.842      48.295
  11.860      45.025
  11.878      44.480
  11.896      39.937
  11.915      43.586
  11.933      48.208
  11.951      46.864
  11.970      52.898
  11.988      56.522
  12.007      57.572
  12.025      61.823
  12.044      68.309
  12.063      71.600
  12.081      75.223
  12.100      75.978
  12.119      93.611
  12.138      92.611
  12.156      99.077
  12.175     112.657
  12.194     141.916
  12.213     159.968
  12.232     186.184
  12.252     223.382
  12.271     296.432
  12.290     393.006
  12.309     520.650
  12.328     702.849
  12.348     882.858
  12.367    1097.378
  12.386    1255.075
  12.406    1359.005
  12.425    1347.528
  12.445    1253.388
  12.465    1088.693
  12.484     883.718
  12.504     656.880
  12.524     494.162
  12.543     338.377
  12.563     257.304
  12.583     171.708
  12.603     125.374
  12.623     100.560
  12.643      79.574
  12.663      67.050
  12.683      67.842
  12.703      64.453
  12.724      66.911
  12.744      69.056
  12.764      73.197
  12.784      84.789
  12.805      86.045
  12.825     105.374
  12.846     109.732
  12.866     120.735
  12.887     111.627
  12.908     102.793
  12.928     100.139
  12.949      90.164
  12.970      81.606
  12.991      68.598
  13.012      61.825
  13.033      48.783
  13.054      53.122
  13.075      42.334
  13.096      52.258
  13.117      52.950
  13.138      53.008
  13.159      56.332
  13.181      68.354
  13.202      77.469
  13.223      77.048
  13.245      92.227
  13.266      92.798
  13.288      96.848
  13.310      93.543
  13.331      95.410
  13.353      91.686
  13.375      86.501
  13.397      79.492
  13.419      75.205
  13.440      73.544
  13.462      75.153
  13.485      77.798
  13.507      73.695
  13.529      86.316
  13.551      91.919
  13.573     112.310
  13.596     121.117
  13.618     126.219
  13.640     148.294
  13.663     163.787
  13.685     173.145
  13.708     187.834
  13.731     210.634
  13.753     215.782
  13.776     225.810
  13.799     241.140
  13.822     236.522
  13.845     259.886
  13.868     264.610
  13.891     281.282
  13.914     297.761
  13.937     295.990
  13.960     321.673
  13.984     335.608
  14.007     339.286
  14.030     330.667
  14.054     338.608
  14.077     323.147
  14.101     310.896
  14.125     293.894
  14.148     281.485
  14.172     258.858
  14.196     254.882
  14.220     220.645
  14.244     220.025
  14.268     205.134
  14.292     189.381
  14.316     174.104
  14.340     163.516
  14.364     154.632
  14.389     151.211
  14.413     150.926
  14.437     141.932
  14.462     156.189
  14.486     154.832
  14.511     172.302
  14.536     165.890
  14.560     166.653
  14.585     152.729
  14.610     117.585
  14.635      93.258
 14.660       68.076
 14.685       51.439
 14.710       46.739
 14.735       33.616
 14.761       33.306
 14.786       37.202
 14.811       29.933
 14.837       32.906
 14.862       35.611
 14.888       30.602
 14.913       29.519
 14.939       34.315
 14.965       32.204
 14.991       35.164
 15.017       35.388
 15.043       35.874
 15.069       34.411
 15.095       38.124
 15.121       36.782
 15.147       37.375
 15.174       43.756
 15.200       55.253
 15.226       60.299
 15.253       61.590
 15.279       87.970
 15.306      119.233
 15.333      153.833
 15.360      210.581
 15.387      244.499
 15.413      284.380
 15.441      289.651
 15.468      266.472
 15.495      224.204
 15.522      166.743
 15.549      109.356
 15.577       81.303
 15.604       58.222
 15.632       42.865
 15.659       27.803
 15.687       22.533
 15.715       16.522
 15.742       15.515
 15.770       14.141
 15.798       11.902
 15.826       16.128
 15.854       20.712
 15.883       22.317
 15.911       29.600
 15.939       44.517
 15.968       63.340
 15.996      110.871
 16.025      162.537
 16.053      242.064
 16.082      303.660
 16.111      333.136
 16.140      304.836
 16.169      264.277
 16.198      179.163
 16.227      113.882
 16.256       71.969
 16.285       39.619
 16.314       29.529
 16.344       16.767
 16.373       16.452
 16.403       19.141
 16.433       20.975
 16.462       28.318
 16.492       47.725
 16.522       68.626
 16.552      112.365
 16.582      171.448
 16.612      223.522
 16.642      279.085
 16.673      328.725
 16.703      343.980
 16.734      326.185
 16.764      282.293
 16.795      219.481
 16.826      169.142
 16.856      141.978
 16.887      115.157
 16.918       87.963
 16.949       78.843
 16.980       65.907
 17.012       54.518
 17.043       48.396
 17.074       44.145
  17.106      39.776
  17.138      35.543
  17.169      35.144
  17.201      30.933
  17.233      31.114
  17.265      29.340
  17.297      29.065
  17.329      27.413
  17.361      24.625
  17.393      23.218
  17.426      29.007
  17.458      25.205
  17.491      23.694
  17.523      25.696
  17.556      25.777
  17.589      27.221
  17.622      27.981
  17.655      30.886
  17.688      30.621
  17.721      32.049
  17.755      39.554
  17.788      46.141
  17.822      62.592
  17.855      71.826
  17.889     104.542
  17.923     140.285
  17.956     205.407
  17.990     288.071
  18.025     341.920
  18.059     389.998
  18.093     404.073
  18.127     372.302
  18.162     318.018
  18.196     267.368
  18.231     220.428
  18.266     170.805
  18.301     132.765
  18.336     109.651
  18.371     102.546
  18.406      88.613
  18.441      84.663
  18.476      77.667
  18.512      74.290
  18.547      75.933
  18.583      79.212
  18.619      82.644
  18.655      78.858
  18.691      83.601
  18.727      82.224
  18.763      95.759
  18.799     108.309
  18.836     115.586
  18.872     141.577
  18.909     163.852
  18.945     195.362
  18.982     218.493
  19.019     253.329
  19.056     288.452
  19.093     350.846
  19.131     521.271
  19.168     783.695
  19.205    1216.881
  19.243    1864.608
  19.281    2480.907
  19.318    2874.166
  19.356    2756.051
  19.394    2305.629
  19.433    1716.473
  19.471    1162.021
  19.509     755.503
  19.548     503.250
  19.586     342.684
  19.625     262.435
  19.664     204.568
  19.703     171.191
  19.742     143.418
  19.781     117.800
  19.820     109.479
  19.860      94.284
  19.899      89.087
  19.939      82.577
  19.978      86.422
  20.018      90.458
  20.058      90.809
  20.098     101.141
  20.139     113.561
  20.179     116.194
  20.219     108.383
  20.260      91.900
  20.301      74.189
  20.342      60.467
  20.383      51.540
  20.424      48.795
  20.465      62.901
  20.506      74.150
  20.548     112.755
  20.589     149.710
  20.631     178.277
  20.673     189.973
  20.715     159.164
  20.757     124.570
  20.799      87.713
  20.841      84.611
  20.884     105.571
  20.927     185.153
  20.969     347.914
  21.012     605.670
  21.055     896.270
  21.098    1043.690
  21.142     968.515
  21.185     693.809
  21.228     421.501
  21.272     232.336
  21.316     128.407
  21.360      78.227
  21.404      47.890
  21.448      35.530
  21.493      28.138
  21.537      21.251
  21.582      16.406
  21.626      15.329
  21.671      12.528
  21.716      13.755
  21.762      14.122
  21.807       9.143
  21.852      10.661
  21.898      12.562
  21.944       9.897
  21.990      10.788
  22.036      10.333
  22.082       9.795
  22.128       9.648
  22.175       8.852
  22.221       8.734
  22.268      10.735
  22.315      10.636
  22.362      12.903
  22.409      12.151
  22.457      16.807
  22.504      19.312
  22.552      21.883
  22.600      24.831
  22.648      28.938
  22.696      36.934
  22.744      54.149
  22.793      91.353
  22.841     163.813
  22.890     277.040
  22.939     378.372
  22.988     409.790
  23.037     335.364
  23.086     229.791
  23.136     140.977
  23.186     109.311
  23.235      94.915
  23.285     122.131
  23.336     196.209
  23.386     328.345
  23.436     428.824
  23.487     482.861
  23.538     512.655
  23.589     565.775
  23.640     622.797
  23.691     635.772
  23.743     556.383
  23.795     449.548
  23.846     336.255
  23.898     234.217
  23.951     173.101
  24.003     128.788
  24.055      95.945
  24.108      95.011
  24.161     138.151
  24.214     226.640
  24.267     313.198
  24.321     340.802
  24.374     319.276
  24.428     256.485
  24.482     209.283
  24.536     194.931
  24.590     174.116
  24.645     164.394
  24.699     162.846
  24.754     167.085
  24.809     169.540
  24.864     169.188
  24.920     181.487
  24.975     197.108
  25.031     204.359
  25.087     219.947
  25.143     231.506
  25.199     250.354
  25.256     278.531
  25.312     310.042
  25.369     340.136
  25.426     366.455
  25.484     397.729
  25.541     426.519
  25.599     426.491
  25.657     423.723
  25.715     386.372
  25.773     333.118
  25.831     272.799
  25.890     206.968
  25.949     149.141
  26.008     103.540
  26.067      70.353
  26.126      55.051
  26.186      51.434
  26.246      70.138
  26.306     113.628
  26.366     192.264
  26.427     301.418
  26.487     387.123
  26.548     391.251
  26.609     365.389
  26.671     292.198
  26.732     223.605
  26.794     176.858
  26.856     140.432
  26.918     117.198
  26.980     102.685
  27.043      95.732
  27.106     103.591
  27.169     105.238
  27.232      95.598
  27.295      75.210
  27.359      57.183
  27.423      53.817
  27.487      57.115
  27.552      74.767
  27.616     118.759
  27.681     219.335
  27.746     388.260
  27.811     544.229
  27.877     532.571
  27.942     404.529
  28.008     250.895
  28.075     149.006
  28.141     115.452
  28.208     105.133
  28.275     117.350
  28.342     148.023
  28.409     159.568
  28.477     140.879
  28.545     101.274
  28.613      74.608
  28.681      59.541
  28.750      55.245
  28.819      46.043
  28.888      38.592
  28.957      29.530
  29.027      21.440
  29.096      17.419
  29.167      18.914
  29.237      17.867
  29.308      13.583
  29.378      16.491
  29.450      20.326
  29.521      34.461
  29.593      69.974
  29.664      99.258
  29.737      92.410
  29.809      53.090
  29.882      25.946
  29.955      13.666
  30.028      10.162
  30.101      13.186
  30.175      14.215
  30.249      17.474
  30.323      23.057
  30.398      39.781
  30.473      68.051
 30.548      120.896
 30.623      164.928
 30.699      181.932
 30.775      195.125
 30.851      257.539
 30.928      255.645
 31.005      173.620
 31.082       74.719
 31.159       23.535
 31.237       11.256
 31.315        9.711
 31.393       10.836
 31.472       12.992
 31.551       19.135
 31.630       27.323
 31.709       42.698
 31.769       68.265
 31.809       94.395
 31.849      145.581
 31.889      214.845
 31.929      342.922
 31.970      524.397
 32.010      779.549
 32.050      988.007
 32.091     1150.496
 32.131     1209.889
 32.172     1052.153
 32.213      860.828
 32.253      602.764
 32.294      415.182
 32.335      269.751
 32.376      161.194
 32.417      112.280
 32.459       73.792
 32.500       56.143
 32.541       43.390
 32.583       32.124
 32.624       25.778
 32.666       22.032
 32.707       19.023
 32.749       16.724
 32.791       14.156
 32.833       13.738
 32.875       11.179
 32.917        7.606
 32.959       11.095
 33.001        9.983
 33.043       10.742
 33.086       14.239
 33.128       12.544
 33.171       19.052
 33.214       24.103
 33.256       37.351
 33.299       61.204
 33.342       99.696
 33.385      202.874
 33.428      357.314
 33.471      589.608
 33.514      748.646
 33.558      893.007
 33.601      896.725
 33.644      733.148
 33.688      538.432
 33.732      364.797
 33.775      235.775
 33.819      156.793
 33.863      108.744
 33.907       92.055
 33.951       78.728
 33.995       79.177
 34.039       89.026
 34.084       92.695
 34.128      113.001
 34.172      156.112
 34.217      269.652
 34.262      440.860
 34.306      694.052
 34.351      938.750
 34.396     1123.326
 34.441     1171.266
 34.486     1090.152
 34.532      908.838
 34.577      745.355
 34.622      621.365
 34.668      596.966
 34.713      597.752
 34.759      655.295
  34.805     764.084
  34.850     895.592
  34.896    1009.589
  34.942    1080.852
  34.988    1153.147
  35.035    1234.141
  35.081    1506.386
  35.127    1894.240
  35.174    2300.068
  35.220    2547.496
  35.267    2529.045
  35.314    2276.766
  35.360    1833.892
  35.407    1386.426
  35.454    1050.471
  35.501     802.055
  35.549     623.453
  35.596     510.419
  35.643     408.235
  35.691     352.074
  35.738     301.016
  35.786     258.357
  35.834     216.928
  35.882     191.809
  35.930     177.069
  35.978     173.529
  36.026     149.651
  36.074     137.778
  36.122     132.990
  36.171     114.935
  36.219     109.922
  36.268     103.614
  36.317      92.970
  36.366      92.866
  36.414      81.902
  36.464      84.038
  36.513      76.050
  36.562      71.369
  36.611      74.234
  36.661      73.437
  36.710      65.086
  36.760      63.630
  36.810      67.828
  36.859      63.713
  36.909      54.865
  36.959      47.104
  37.009      48.261
  37.060      49.024
  37.110      53.907
  37.160      52.314
  37.211      49.033
  37.262      52.684
  37.312      51.467
  37.363      53.459
  37.414      59.254
  37.465      55.251
  37.517      57.407
  37.568      53.474
  37.619      52.309
  37.671      60.737
  37.722      58.914
  37.774      59.982
  37.826      68.551
  37.878      70.648
  37.930      71.403
  37.982      80.954
  38.034      88.039
  38.086      95.971
  38.139     116.483
  38.191     143.257
  38.244     151.102
  38.297     178.450
  38.350     193.829
  38.403     191.003
  38.456     163.759
  38.509     135.003
  38.562     110.608
  38.616      83.660
  38.669      64.440
  38.723      54.690
  38.777      49.713
  38.831      39.181
  38.885      37.644
  38.939      38.097
  38.993      42.980
  39.047      48.917
  39.102      69.591
  39.156     108.815
  39.211     218.694
  39.266     404.788
  39.321     725.107
  39.376    1076.623
  39.431    1363.019
  39.486    1384.118
  39.541    1175.422
  39.597     841.724
  39.652     528.250
  39.708     330.259
  39.764     241.020
  39.820     202.886
  39.876     209.647
  39.932     212.772
  39.989     196.142
  40.045     166.242
  40.102     140.962
  40.158     102.460
  40.215      74.735
  40.272      66.926
  40.329      81.285
  40.386     113.343
  40.443     147.753
  40.501     201.575
  40.558     229.931
  40.616     235.412
  40.674     210.888
  40.732     195.759
  40.790     158.788
  40.848     154.908
  40.906     136.583
  40.964     124.851
  41.023     127.686
  41.081     136.484
  41.140     152.563
  41.199     164.777
  41.258     202.157
  41.317     219.569
  41.377     234.677
  41.436     266.342
  41.495     284.484
  41.555     294.731
  41.615     292.888
  41.675     284.646
  41.735     276.651
  41.795     314.275
  41.855     387.073
  41.916     433.527
  41.976     419.838
  42.037     360.808
  42.098     282.365
  42.159     263.091
  42.220     256.789
  42.281     261.181
  42.342     249.855
  42.404     213.873
  42.465     165.504
  42.527     128.370
  42.589     111.145
  42.651     118.174
  42.713     117.718
  42.776     103.690
  42.838      84.061
  42.901      65.813
  42.963      56.734
  43.026      54.256
  43.089      53.724
  43.152      58.034
  43.215      75.490
  43.279     110.280
  43.342     180.543
  43.406     228.810
  43.470     255.882
  43.534     231.853
  43.598     171.413
  43.662     143.101
  43.727     134.880
  43.791     151.379
  43.856     202.988
  43.921     254.594
  43.986     305.697
  44.051     304.599
  44.116     262.988
  44.181     222.674
  44.247     202.927
  44.312     198.283
  44.378     217.664
  44.444     270.547
  44.510     347.158
  44.577     461.641
  44.643     536.515
  44.710     522.211
  44.776     471.617
  44.843     402.926
  44.910     352.400
  44.977     324.807
  45.045     291.543
  45.112     255.014
  45.180     216.536
  45.248     191.599
  45.315     158.700
  45.384     126.929
  45.452     108.891
  45.520      97.135
  45.589      91.765
  45.657      99.136
  45.726     117.915
  45.795     134.596
  45.864     134.050
  45.934     109.807
  46.003      80.521
  46.073      53.323
  46.143      37.693
  46.213      31.287
  46.283      29.202
  46.353      32.837
  46.423      34.600
  46.494      52.359
  46.565      84.321
  46.636     156.328
  46.707     284.435
  46.778     415.149
  46.849     553.286
  46.921     640.790
  46.993     661.440
  47.065     623.134
  47.137     502.335
  47.209     358.307
  47.281     212.251
  47.354     135.047
  47.426      80.261
  47.499      65.322
  47.572      65.279
  47.646      64.544
  47.719      80.145
  47.793     137.880
  47.866     232.928
  47.940     343.157
  48.014     443.192
  48.089     456.282
  48.163     425.296
  48.238     459.847
  48.312     499.432
  48.387     484.399
  48.462     421.119
  48.538     306.775
  48.613     228.761
  48.689     244.649
  48.765     327.134
  48.841     410.306
  48.917     408.549
  48.993     335.959
  49.070     232.484
  49.146     174.772
  49.223     138.126
  49.300     165.388
  49.378     214.345
  49.455     264.965
  49.533     256.327
  49.610     193.358
  49.688     121.591
  49.767      72.738
  49.845      52.612
  49.923      59.812
  50.002      72.518
  50.081     115.512
  50.160     162.695
  50.239     188.394
  50.319     238.647
  50.399     355.108
  50.478     459.486
  50.558     492.896
  50.639     435.185
  50.719     342.259
  50.800     299.372
  50.881     298.748
  50.962     358.941
  51.043     517.146
  51.124     763.988
  51.206    1076.355
  51.287    1404.893
  51.369    1436.952
  51.452    1189.361
  51.534     850.045
  51.617     609.987
 51.699      490.793
 51.782      428.159
 51.865      389.310
 51.949      420.331
 52.032      522.491
 52.116      675.017
 52.200      815.115
 52.284      894.745
 52.369      847.058
 52.453      713.472
 52.538      535.724
 52.623      358.428
 52.708      271.936
 52.794      185.082
 52.879      139.120
 52.965      108.660
 53.051       90.400
 53.137       83.665
 53.224       94.622
 53.310      146.693
 53.397      238.862
 53.484      286.309
 53.572      283.299
 53.659      210.320
 53.747      143.399
 53.835      115.480
 53.923       94.785
 54.011       98.075
 54.100      108.720
 54.189      114.899
 54.278      107.113
 54.367       76.211
 54.457       63.454
 54.546       64.362
 54.636       82.879
 54.726      130.767
 54.817      223.964
 54.907      425.752
 54.998      742.649
 55.089     1046.920
 55.180     1080.021
 55.272      785.742
 55.363      435.858
 55.455      272.161
 55.548      276.604
 55.640      397.769
 55.733      636.031
 55.825      920.389
 55.919     1095.164
 56.012     1135.818
 56.105     1075.653
 56.199      936.561
 56.293      955.347
 56.388     1238.714
 56.482     1751.934
 56.577     1985.961
 56.672     1605.980
 56.767      968.493
 56.862      466.627
 56.958      243.984
 57.054      146.987
 57.150      104.547
 57.247       69.602
 57.343       61.764
 57.440       75.355
 57.537      126.316
 57.635      208.205
 57.733      344.038
 57.830      495.037
 57.929      634.714
 58.027      703.433
 58.126      682.639
 58.225      505.668
 58.324      264.434
 58.423      176.922
 58.523      258.758
 58.623      452.358
 58.723      593.382
 58.823      552.867
 58.924      363.505
 59.025      207.914
 59.126      114.362
 59.228       75.383
 59.329       65.802
 59.431       57.905
 59.534       69.783
 59.636       93.063
  59.739     140.410
  59.842     169.161
  59.945     220.245
  60.049     279.457
  60.153     378.982
  60.257     440.719
  60.361     388.327
  60.466     279.104
  60.571     197.726
  60.676     180.783
  60.782     225.182
  60.887     272.535
  60.994     286.037
  61.100     255.257
  61.206     223.274
  61.313     180.362
  61.420     132.332
  61.528     119.531
  61.636     111.133
  61.744     102.552
  61.852      99.750
  61.961      86.237
  62.069      85.764
  62.179      83.440
  62.288      87.970
  62.398      98.688
  62.508     103.848
  62.618      79.430
  62.729      70.665
  62.839      60.543
  62.951      73.910
  63.062      83.206
  63.174     101.038
  63.286     137.997
  63.398     152.471
  63.511     181.144
  63.624     215.826
  63.737     230.949
  63.851     216.124
  63.965     178.870
  64.079     156.318
  64.193     154.591
  64.308     179.363
  64.423     165.170
  64.539     104.948
  64.655      54.219
  64.771      29.812
  64.887      24.881
  65.004      21.669
  65.121      19.668
  65.238      21.830
  65.355      17.469
  65.473      19.116
  65.592      34.705
  65.710      69.254
  65.829     115.808
  65.948     104.980
  66.068      77.618
  66.188      61.337
  66.308      89.265
  66.428     128.964
  66.549     116.876
  66.671      60.955
  66.792      25.067
  66.914      12.238
  67.036      13.810
  67.159      18.856
  67.281      30.812
  67.405      28.440
  67.528      18.927
  67.652      13.723
  67.776      12.777
  67.901      10.539
  68.026      10.379
  68.151      12.052
  68.276      23.385
  68.402      33.895
  68.529      43.754
  68.655      44.712
  68.782      35.102
  68.910      35.938
  69.005      45.879
  69.069      76.775
  69.133     113.111
  69.197     168.542
  69.262     212.527
  69.326     268.761
  69.390     262.322
  69.455     251.754
  69.519     218.165
  69.584     191.233
  69.649     161.121
  69.714     136.921
  69.778     129.128
  69.843     124.006
  69.909     135.252
  69.974     150.307
  70.039     173.018
  70.104     232.662
  70.170     308.396
  70.235     450.350
  70.301     633.461
  70.367     815.805
  70.433     993.975
  70.499    1089.515
  70.565    1116.938
  70.631    1082.078
  70.697    1083.084
  70.763    1053.042
  70.830    1012.841
  70.896     889.439
  70.963     710.125
  71.029     551.982
  71.096     366.489
  71.163     266.391
  71.230     186.151
  71.297     144.732
  71.364     116.003
  71.431     121.171
  71.499     126.526
  71.566     146.551
  71.634     141.473
  71.701     148.822
  71.769     127.769
  71.837     104.500
  71.905      80.904
  71.973      69.744
  72.041      82.895
  72.109     139.726
  72.177     251.282
  72.246     417.094
  72.314     647.112
  72.383     890.541
  72.451     973.014
  72.520     965.707
  72.589     815.472
  72.658     626.212
  72.727     447.605
  72.796     304.806
  72.866     227.426
  72.935     182.876
  73.005     144.766
  73.074     134.225
  73.144     110.145
  73.214      86.430
  73.283      73.775
  73.353      54.502
  73.423      51.402
  73.494      48.647
  73.564      30.718
  73.634      30.181
  73.705      28.186
  73.775      22.891
  73.846      27.854
  73.917      20.007
  73.988      30.628
  74.059      32.109
  74.130      46.182
  74.201      62.612
  74.272     128.449
  74.344     237.392
  74.415     388.059
  74.487     606.710
  74.558     783.074
  74.630     875.803
  74.702     848.735
  74.774     711.171
  74.846     561.063
  74.918     434.772
  74.991     343.451
  75.063     333.100
  75.136     335.621
  75.208     358.703
  75.281     399.138
  75.354     434.956
  75.427     459.935
  75.500     516.766
  75.573     537.342
  75.646     525.227
  75.720     440.979
  75.793     340.796
  75.867     256.394
  75.941     181.495
  76.014     113.297
  76.088      63.533
  76.162      40.884
  76.237      28.880
  76.311      21.154
  76.385      15.986
  76.460      14.373
  76.534      20.856
  76.609      21.398
  76.684      31.630
  76.759      47.732
  76.834      49.144
  76.909      45.216
  76.984      51.627
  77.059      44.666
  77.135      43.936
  77.210      56.616
  77.286      81.745
  77.362     131.832
  77.438     183.261
  77.514     262.289
  77.590     272.124
  77.666     273.577
  77.742     238.067
  77.819     192.416
  77.895     200.707
  77.972     222.616
  78.049     302.419
  78.126     351.555
  78.203     379.357
  78.280     342.580
  78.357     287.639
  78.434     212.032
  78.512     154.068
  78.589     116.646
  78.667     101.911
  78.745      83.685
  78.823      73.044
  78.901      61.211
  78.979      58.899
  79.057      52.909
  79.136      51.485
  79.214      54.866
  79.293      59.448
  79.372      70.956
  79.451      84.363
  79.530     124.114
  79.609     170.686
  79.688     219.157
  79.767     228.602
  79.847     222.138
  79.926     167.560
  80.006     136.447
  80.086     126.377
  80.166     140.405
  80.246     188.567
  80.326     237.215
  80.406     263.812
  80.487     272.625
  80.567     218.517
  80.648     172.397
  80.729     110.357
  80.810      82.248
  80.891      68.718
  80.972      66.243
  81.053      63.070
  81.135      74.777
  81.216     104.131
  81.298     151.140
  81.379     233.061
  81.461     300.371
  81.543     329.173
  81.625     276.273
  81.708     203.038
  81.790     130.806
  81.873      71.748
  81.955      50.754
  82.038      36.414
  82.121      29.054
  82.204      26.912
  82.287      40.010
  82.370      55.937
  82.454      86.253
  82.537     123.106
  82.621     169.259
  82.705     224.344
  82.788     252.635
  82.872     261.495
  82.957     245.588
  83.041     199.943
 83.125      165.778
 83.210      138.052
 83.294      137.320
 83.379      167.181
 83.464      224.145
 83.549      315.052
 83.634      378.379
 83.720      435.030
 83.805      470.211
 83.891      533.964
 83.976      630.174
 84.062      742.764
 84.148      844.692
 84.234      899.209
 84.321      921.555
 84.407      883.446
 84.493      793.499
 84.580      674.607
 84.667      542.970
 84.754      453.371
 84.841      420.482
 84.928      442.533
 85.015      444.653
 85.103      444.188
 85.190      428.180
 85.278      398.034
 85.366      360.930
 85.454      320.975
 85.542      278.972
 85.630      262.112
 85.718      234.160
 85.807      203.151
 85.896      168.420
 85.984      123.667
 86.073       96.174
 86.162       66.666
 86.252       55.234
 86.341       47.213
 86.431       35.982
 86.520       41.785
 86.610       50.164
 86.700       69.522
 86.790      108.552
 86.880      143.622
 86.970      162.837
 87.061      153.294
 87.151      141.537
 87.242      109.434
 87.333      126.707
 87.424      135.484
 87.515      156.112
 87.607      169.269
 87.698      176.834
 87.790      170.889
 87.881      150.980
 87.973      135.289
 88.065      136.334
 88.158      143.948
 88.250      170.455
 88.342      205.690
 88.435      271.935
 88.528      369.149
 88.621      472.636
 88.714      566.843
 88.807      606.986
 88.900      605.464
 88.994      580.213
 89.087      456.186
 89.181      360.092
 89.275      260.940
 89.369      208.751
 89.463      171.062
 89.558      159.894
 89.652      170.368
 89.747      221.537
 89.842      247.856
 89.937      234.642
 90.032      210.750
 90.127      191.736
 90.223      210.347
 90.318      294.823
 90.414      379.902
 90.510      411.595
 90.606      347.227
 90.702      266.264
 90.799      208.422
 90.895      213.962
  90.992     269.786
  91.089     394.839
  91.186     524.671
  91.283     656.245
  91.380     717.965
  91.477     634.899
  91.575     476.800
  91.673     355.429
  91.771     239.938
  91.869     200.505
  91.967     209.314
  92.065     252.904
  92.164     262.453
  92.263     267.195
  92.361     296.492
  92.460     360.943
  92.560     497.794
  92.659     568.951
  92.758     490.102
  92.858     332.206
  92.958     197.198
  93.058     121.369
  93.158     108.532
  93.258     111.429
  93.359     102.381
  93.459      82.883
  93.560      58.839
  93.661      30.900
  93.762      28.299
  93.863      55.569
  93.965     114.578
  94.066     204.323
  94.168     250.387
  94.270     232.735
  94.372     161.294
  94.475     115.181
  94.577      89.946
  94.680     117.677
  94.782     150.577
  94.885     173.217
  94.988     141.041
  95.092     129.150
  95.195     120.178
  95.299     143.227
  95.402     177.587
  95.506     219.662
  95.610     242.297
  95.715     267.835
  95.819     247.207
  95.924     221.127
  96.029     206.065
  96.134     194.868
  96.239     199.491
  96.344     197.490
  96.450     211.462
  96.555     204.154
  96.661     181.188
  96.767     145.848
  96.873     111.007
  96.980      75.732
  97.086      51.276
  97.193      41.804
  97.300      36.045
  97.407      33.352
  97.514      34.359
  97.621      55.111
  97.729      94.782
  97.837     180.933
  97.945     341.719
  98.053     513.663
  98.161     680.764
  98.270     640.357
  98.378     507.851
  98.487     331.577
  98.596     197.874
  98.705     117.980
  98.815      78.870
  98.924      60.228
  99.034      46.218
  99.144      35.886
  99.254      46.283
  99.364      62.232
  99.475      98.225
  99.586     116.176
  99.696     124.876
  99.807     110.677
  99.919      92.690
 100.030      73.446
 100.142      82.664
 100.253     115.704
 100.365     144.734
 100.478     148.642
 100.590     124.124
 100.703     100.729
 100.815     100.015
 100.928     135.773
 101.041     160.718
 101.155     146.222
 101.268     103.753
 101.382      58.167
 101.496      32.694
 101.610      41.073
 101.724      57.022
 101.838      79.900
 101.953      94.871
 102.068      85.376
 102.183      64.236
 102.298      51.602
 102.413      42.300
 102.529      63.884
 102.645     133.803
 102.761     278.241
 102.877     487.551
 102.993     658.582
 103.110     610.532
 103.227     469.918
 103.344     357.348
 103.461     350.406
 103.578     402.799
 103.696     375.614
 103.814     318.326
 103.932     214.983
 104.050     158.165
 104.168     141.533
 104.287     126.324
 104.406     102.402
 104.525      80.861
 104.644      70.093
 104.763      82.538
 104.883     136.066
 105.003     269.159
 105.123     466.116
 105.243     616.778
 105.364     620.046
 105.484     505.419
 105.605     361.970
 105.726     256.829
 105.847     195.820
 105.969     209.054
 106.091     250.440
 106.212     287.287
 106.335     249.614
 106.457     177.402
 106.579     128.732
 106.702     114.352
 106.825      97.351
 106.948      84.686
 107.072      76.816
 107.195      66.492
 107.319      83.583
 107.443     151.584
 107.567     285.949
 107.692     417.185
 107.816     419.660
 107.941     319.628
 108.066     197.502
 108.192     129.182
 108.317      86.986
 108.443      54.157
 108.569      53.377
 108.695      75.075
 108.822     129.924
 108.948     174.442
 109.075     178.737
 109.202     123.068
 109.329      82.129
 109.457      66.870
 109.585      73.281
 109.713      99.508
 109.841     154.493
 109.969     202.709
 110.098     230.325
 110.227     227.482
 110.356     191.171
 110.485     134.199
 110.615      73.331
 110.745      46.713
 110.875      38.354
 111.005      36.385
 111.135      42.770
 111.266      41.108
 111.397      68.415
 111.528     120.373
 111.659     179.382
 111.791     191.535
 111.923     159.197
 112.055      90.183
 112.187      44.372
 112.320      26.255
 112.453      23.852
 112.586      26.727
 112.719      34.279
 112.852      44.997
 112.986      51.953
 113.120      62.218
 113.254     103.560
 113.389     190.829
 113.523     286.576
 113.658     344.825
 113.794     295.637
 113.929     187.884
 114.065     108.265
 114.201      62.448
 114.337      46.129
 114.473      35.662
 114.610      33.739
 114.747      37.199
 114.884      57.891
 115.021      85.451
 115.159     113.253
 115.297     131.757
 115.435     137.392
 115.573     183.582
 115.712     315.896
 115.850     484.508
 115.990     618.508
 116.129     641.870
 116.269     528.818
 116.408     365.020
 116.548     218.073
 116.689     145.209
 116.829     112.369
 116.970      98.632
 117.111      91.761
 117.253      96.212
 117.394     107.968
 117.536     124.767
 117.679     169.848
 117.821     249.707
 117.964     368.579
 118.107     497.093
 118.250     587.648
 118.393     626.690
 118.501     612.477
 118.573     616.615
 118.645     602.978
 118.717     610.964
 118.789     549.280
 118.861     507.190
 118.933     471.697
 119.006     398.613
 119.078     351.973
 119.151     292.631
 119.223     257.903
 119.296     237.119
 119.368     203.329
 119.441     188.794
 119.514     188.168
 119.587     156.229
 119.660     153.867
 119.733     145.290
 119.806     146.225
 119.879     134.397
 119.952     118.801
 120.025     127.051
 120.098     120.593
 120.172     125.319
 120.245     106.141
 120.319     114.109
 120.392     108.783
 120.466     114.397
 120.540     100.243
 120.613      90.535
 120.687     101.716
 120.761     100.837
 120.835      97.879
 120.909      94.932
 120.983     104.924
 121.058     114.323
 121.132     132.831
 121.206     135.462
 121.281     138.971
 121.355     163.942
121.430      180.953
121.504      225.289
121.579      285.451
121.654    376.121
121.728      561.816
121.803      766.144
121.878      988.094
121.953     1196.008
122.028     1296.078
122.104     1271.531
122.179     1131.673
122.254      851.028
122.329      599.342
122.405      397.667
122.480      234.105
122.556      149.334
122.632      104.018
122.707       71.320
122.783       48.532
122.859       43.012
122.935       34.557
123.011       34.873
123.087       39.854
123.163       36.081
123.239       46.323
123.315       60.947
123.392       79.082
123.468       97.789
123.545      127.298
123.621      128.760
123.698      130.780
123.775      129.591
123.851      125.480
123.928      126.334
124.005      107.052
124.082       98.284
124.159       90.692
124.236       82.802
124.314       90.095
124.391       95.322
124.468      119.802
124.546      180.965
124.623      238.047
124.701      309.960
124.778      389.153
124.856      445.006
124.934      442.303
125.012      399.729
125.090      365.015
125.168      320.994
125.246      291.558
125.324      268.785
125.402      271.357
125.480      326.258
125.559      353.500
125.637      402.805
125.716      504.372
125.794      633.456
125.873      704.891
125.952      797.423
126.030      861.990
126.109      895.708
126.188      921.278
126.267      893.202
126.346      871.833
126.426      890.428
126.505      914.837
126.584      843.225
126.664      749.490
126.743      628.692
126.823      509.459
126.902      394.339
126.982      288.800
127.062      234.151
127.142      182.982
127.222      143.400
127.302      121.709
127.382      133.526
127.462      131.458
127.542      140.084
127.622      155.604
127.703      176.890
127.783      197.283
127.864      226.302
127.944      263.653
128.025      270.473
128.106      307.499
 128.187     334.412
 128.267     334.290
 128.348     310.310
 128.430     285.494
 128.511     220.195
 128.592     161.277
 128.673     129.357
 128.755      85.146
 128.836      69.054
 128.918      55.294
 128.999      56.998
 129.081      54.977
 129.163      55.273
 129.244      69.023
 129.326     101.402
 129.408     134.025
 129.490     156.345
 129.573     189.505
 129.655     212.064
 129.737     219.709
 129.820     212.194
 129.902     189.532
 129.985     166.891
 130.067     145.116
 130.150     113.653
 130.233      90.788
 130.316      67.639
 130.399      49.377
 130.482      51.937
 130.565      49.957
 130.648      56.802
 130.731      82.505
 130.814     117.594
 130.898     163.267
 130.981     229.726
 131.065     317.007
 131.149     365.683
 131.232     449.096
 131.316     507.075
 131.400     531.357
 131.484     532.557
 131.568     501.558
 131.652     494.232
 131.736     471.246
 131.821     437.219
 131.905     408.887
 131.990     447.091
 132.074     459.983
 132.159     470.291
 132.243     482.877
 132.328     446.624
 132.413     440.773
 132.498     406.837
 132.583     429.349
 132.668     464.560
 132.753     511.395
 132.839     511.141
 132.924     485.163
 133.009     483.799
 133.095     451.344
 133.181     399.701
 133.266     394.732
 133.352     402.469
 133.438     464.417
 133.524     567.544
 133.610     649.080
 133.696     686.041
 133.782     637.819
 133.868     554.754
 133.955     393.119
 134.041     258.915
 134.128     141.361
 134.214      88.949
 134.301      64.712
 134.388      73.164
 134.475      97.671
 134.562     123.564
 134.649     182.098
 134.736     284.221
 134.823     384.544
 134.910     520.526
 134.998     677.137
 135.085     881.937
 135.173    1003.641
 135.260    1087.905
 135.348    1168.720
 135.436    1160.852
 135.524    1104.483
 135.612    1013.152
 135.700     860.812
 135.788     687.095
 135.876     505.976
 135.964     381.558
 136.053     306.154
 136.141     302.136
 136.230     301.712
 136.318     347.956
 136.407     381.565
 136.496     351.805
 136.585     294.470
 136.674     242.760
 136.763     154.883
 136.852     102.728
 136.941      76.811
 137.031      51.176
 137.120      58.167
 137.210      85.221
 137.299     141.524
 137.389     215.342
 137.479     288.255
 137.569     366.408
 137.659     381.582
 137.749     337.509
 137.839     263.439
 137.929     183.044
 138.019     117.143
 138.110      57.681
 138.200      31.032
 138.291      22.453
 138.382      14.435
 138.472      14.458
 138.563      13.089
 138.654      16.435
 138.745      10.068
 138.836      17.291
 138.927      23.403
 139.019      42.263
 139.110      68.318
 139.202      79.670
 139.293      89.622
 139.385      87.390
 139.477      87.918
 139.568      68.784
 139.660      61.293
 139.752      54.083
 139.845      75.376
 139.937      93.609
 140.029     127.583
 140.121     164.304
 140.214     206.240
 140.306     225.222
 140.399     226.523
 140.492     223.688
 140.585     194.659
 140.678     149.646
 140.771     104.637
 140.864      89.738
 140.957      84.494
 141.050      81.458
 141.144      85.317
 141.237      80.891
 141.331      77.575
 141.424     105.136
 141.518     121.398
 141.612     175.133
 141.706     227.734
 141.800     340.899
 141.894     451.310
 141.988     537.052
 142.083     642.473
 142.177     712.008
 142.272     730.075
 142.366     631.933
 142.461     496.029
 142.556     363.548
 142.651     252.862
 142.746     175.701
 142.841     140.550
 142.936     118.853
 143.031     110.601
 143.127     104.794
 143.222      95.177
 143.318      84.468
 143.413      81.987
 143.509      74.850
 143.605      69.641
 143.701      49.368
 143.797      47.725
 143.893      43.894
 143.989      46.911
 144.086      46.637
 144.182      63.064
 144.279      49.637
 144.375      56.181
 144.472      56.992
 144.569      58.348
 144.666      62.709
 144.763      70.899
 144.860      83.189
 144.957     105.316
 145.054     129.356
 145.152     179.612
 145.249     256.056
 145.347     398.782
 145.445     559.668
 145.542     713.839
 145.640     833.720
 145.738     823.442
 145.836     743.185
 145.935     571.543
 146.033     394.920
 146.131     268.262
 146.230     171.903
 146.328     118.593
 146.427      97.949
 146.526      88.203
 146.625      83.625
 146.724      86.391
 146.823      84.318
 146.922     118.318
 147.021     162.614
 147.121     226.710
 147.220     306.247
 147.320     386.562
 147.420     447.577
 147.519     398.950
 147.619     312.066
 147.719     224.675
 147.819     135.696
 147.920      78.744
 148.020      43.775
 148.120      32.650
 148.221      34.003
 148.321      44.293
 148.422      54.853
 148.523      68.385
 148.624     124.394
 148.725     209.329
 148.826     311.775
 148.927     437.657
 149.029     584.241
 149.130     629.090
 149.232     673.089
 149.333     624.455
 149.435     486.583
 149.537     394.984
 149.639     342.827
 149.741     321.727
 149.843     326.530
 149.945     351.534
 150.048     356.004
 150.150     336.468
 150.253     302.119
 150.355     245.171
 150.458     199.578
 150.561     127.111
 150.664     100.169
 150.767      72.437
 150.870      53.605
 150.974      46.073
 151.077      39.622
 151.181      35.054
 151.284      33.180
 151.388      32.642
 151.492      41.509
 151.596      57.621
 151.700      69.428
 151.804      67.266
 151.908      51.683
 152.013      46.842
 152.117      28.308
 152.222      23.214
 152.327      21.888
 152.431      24.860
 152.536      21.665
 152.641      25.718
 152.747      31.921
 152.852      37.582
 152.957      61.735
 153.063     122.032
 153.168     231.831
 153.274     369.386
 153.380     563.026
153.486      691.995
153.592      703.755
153.698      606.705
153.804      445.894
153.910      281.747
154.017      169.238
154.123      101.118
154.230       81.640
154.337       69.906
154.444       77.143
154.551      106.515
154.658      137.475
154.765      207.905
154.873      265.744
154.980      259.012
155.088      274.405
155.195      260.754
155.303      235.920
155.411      241.741
155.519      248.356
155.627      282.364
155.735      286.811
155.844      282.204
155.952      263.499
156.061      259.672
156.169      277.609
156.278      297.926
156.387      296.469
156.496      306.954
156.605      362.528
156.715      444.837
156.824      520.709
156.934      536.373
157.043      440.561
157.153      344.609
157.263      237.912
157.373      145.597
157.483      133.216
157.593      105.587
157.703       88.459
157.814       76.082
157.924       63.705
158.035       70.065
158.146       89.351
158.257      139.747
158.368      192.489
158.479      256.792
158.590      331.358
158.701      352.623
158.813      366.505
158.924      363.000
159.036      365.014
159.148      359.668
159.260      380.922
159.372      336.329
159.484      293.597
159.596      260.361
159.709      217.121
159.821      192.346
159.934      148.108
160.047      138.359
160.160      103.375
160.273       77.874
160.386       69.724
160.499       82.587
160.612       98.584
160.726      166.831
160.840      267.547
160.953      385.483
161.067      444.282
161.181      407.623
161.295      317.822
161.409      223.643
161.524      162.030
161.638      102.561
161.753       91.828
161.867       91.578
161.982       98.409
162.097      128.315
162.212      154.792
162.328      162.634
162.443      208.459
162.558      222.559
162.674      220.142
162.790      236.864
162.905      204.599
163.021      195.923
 163.137     210.804
 163.254     243.211
 163.370     349.389
 163.486     513.560
 163.603     679.645
 163.719     800.326
 163.836     765.147
 163.953     619.568
 164.070     406.292
 164.187     265.474
 164.305     136.228
 164.422      67.313
 164.540      48.781
 164.657      44.610
 164.775      39.915
 164.893      31.587
 165.011      42.050
 165.129      49.131
 165.248      77.332
 165.366     122.720
 165.485     211.855
 165.603     321.499
 165.722     403.692
 165.841     423.349
 165.960     416.951
 166.079     425.154
 166.199     434.102
 166.318     465.126
 166.438     435.815
 166.558     399.238
 166.677     349.460
 166.797     271.423
 166.918     201.497
 167.038     162.759
 167.158     156.999
 167.279     144.498
 167.399     162.863
 167.520     183.020
 167.641     263.807
 167.762     348.410
 167.883     454.400
 168.004     568.575
 168.126     631.374
 168.247     620.681
 168.369     528.833
 168.491     446.156
 168.613     315.785
 168.735     238.195
 168.857     208.435
 168.979     210.967
 169.102     241.869
 169.225     332.068
 169.347     372.705
 169.470     403.835
 169.593     366.879
 169.716     320.939
 169.840     221.484
 169.963     142.689
 170.087     117.184
 170.210     112.784
 170.334     123.553
 170.458     156.667
 170.582     173.055
 170.706     166.053
 170.831     126.961
 170.955     102.260
 171.080      87.621
 171.205      89.152
 171.330      94.544
 171.455     122.244
 171.580     156.842
 171.705     187.307
 171.830     202.363
 171.956     183.347
 172.082     161.793
 172.208     110.300
 172.334      90.051
 172.460      76.990
 172.586      66.464
 172.713      69.777
 172.839      63.367
 172.966      80.768
 173.093      89.464
 173.220      87.938
 173.347      90.509
 173.474     105.364
 173.601     141.156
 173.729     166.189
 173.857     260.909
 173.984     372.370
 174.112     453.371
 174.240     528.429
 174.369     577.709
 174.497     652.247
 174.626     682.960
 174.754     649.723
 174.883     564.754
 175.012     462.982
 175.141     338.273
 175.270     267.604
 175.400     227.789
 175.529     187.996
 175.659     183.095
 175.789     191.417
 175.919     207.354
 176.049     255.332
 176.179     293.624
 176.309     361.647
 176.440     413.109
 176.571     515.569
 176.701     551.394
 176.832     497.841
 176.964     476.800
 177.095     458.825
 177.226     568.102
 177.358     853.019
 177.490    1230.350
 177.621    1534.547
 177.753    1513.913
 177.885    1230.762
 178.018     831.063
 178.150     482.688
 178.283     292.335
 178.416     227.717
 178.548     268.508
 178.681     319.566
 178.815     311.906
 178.948     247.611
 179.081     183.109
 179.215     129.457
 179.349     131.436
 179.483     140.953
 179.617     152.221
 179.751     152.177
 179.885     149.885
 180.020     200.116
 180.155     311.108
 180.289     480.035
 180.424     598.090
 180.560     605.605
 180.695     489.684
 180.830     350.068
 180.966     234.635
 181.102     181.957
 181.237     185.712
 181.374     207.260
 181.510     237.856
 181.646     276.997
 181.783     299.333
 181.919     343.929
 182.056     414.520
 182.193     441.439
 182.330     426.482
 182.467     362.218
 182.605     298.289
 182.742     191.658
 182.880     132.352
 183.018     116.822
 183.156     118.302
 183.294     131.766
 183.433     126.725
 183.571     103.701
 183.710      95.178
 183.849      77.171
 183.988      69.413
 184.127      63.412
 184.266      51.687
 184.406      40.968
 184.545      24.536
 184.685      14.589
 184.825      11.878
 184.965       7.921
 185.105      10.195
 185.246      10.725
 185.386      19.972
 185.527      33.189
 185.668      59.094
 185.809      72.780
 185.950      81.227
 186.092      79.221
 186.233      73.721
 186.375      97.324
 186.517     120.912
 186.659     152.680
 186.801     165.540
 186.944     170.955
 187.086     156.034
 187.229     142.120
 187.372     126.250
 187.515     113.607
 187.658     102.194
 187.801      87.796
 187.945      79.844
 188.088      66.907
 188.232      48.047
 188.376      44.812
 188.520      35.885
 188.665      49.264
 188.809      50.751
 188.954      69.816
 189.099     114.619
 189.244     194.537
 189.389     345.159
 189.534     508.527
 189.680     569.407
 189.825     523.972
 189.971     404.907
 190.117     271.142
 190.263     171.329
 190.410     109.381
 190.556      81.530
 190.703      62.813
 190.850      61.109
 190.997      60.132
 191.144      69.995
 191.291      77.386
 191.439      80.329
 191.586     101.261
 191.734     119.720
 191.882     189.388
 192.030     327.735
 192.179     598.378
 192.327     909.716
 192.476    1012.082
 192.625     910.391
 192.774     597.245
 192.923     333.581
 193.073     146.450
 193.222      69.861
 193.372      52.221
 193.522      69.201
 193.672     101.399
 193.822     183.877
 193.973     287.617
 194.124     425.853
 194.274     498.962
 194.425     514.163
 194.577     426.457
 194.728     292.064
 194.879     172.479
 195.031     126.912
 195.183      82.118
 195.335      60.605
 195.487      49.145
 195.640      36.757
 195.792      40.956
 195.945      61.272
 196.098      79.862
 196.251     109.675
 196.404     125.049
 196.558     120.873
 196.711     103.515
 196.865     104.487
 197.019     100.825
 197.174     138.636
 197.328     181.780
 197.482     252.190
 197.637     293.516
 197.792     346.021
 197.947     359.506
 198.103     421.685
 198.258     497.183
 198.414     583.830
 198.570     649.750
 198.726     715.643
 198.882     667.091
 199.038     590.156
 199.195     466.347
 199.351     353.281
 199.508     296.611
ENDDATA           2432
ENDSUBENT         2444
SUBENT        10249003   20011130   20020117
BIB                  4          5
REACTION   (92-U-235(N,G)92-U-236,,SIG,,RTE)
MONITOR    (92-U-235(N,G)92-U-236,,INT)
ERR-ANALYS Total estimated error about 6% above 100 eV.
HISTORY    (19750525A) Corrected energy at 121.654 eV.
           (19830608U) BIB correction
ENDBIB               5
COMMON               3          3
EN-NRM-MIN EN-NRM-MAX MONIT
EV         EV         B*EV
 100.       200.       1145.
ENDCOMMON            3
DATA                 2       2430
EN         DATA
EV         B*RT-EV
   8.050      13.655
   8.070      36.552
   8.091      35.436
   8.111      13.398
   8.132      20.500
   8.153       4.081
   8.173      39.332
   8.194      38.061
   8.215      49.856
   8.236      20.585
   8.257      33.585
   8.279      40.462
   8.300      32.909
   8.321      46.256
   8.343      15.412
   8.364      28.780
   8.386      25.425
   8.407      47.998
   8.429      42.805
   8.451      61.113
   8.473      70.882
   8.495      56.322
   8.517      57.295
   8.539      76.788
   8.562      84.895
   8.584      95.785
   8.607     129.233
   8.629     160.344
   8.652     206.227
   8.675     269.134
   8.697     352.525
   8.720     433.934
   8.743     563.986
   8.766     674.444
   8.790     678.869
   8.813     674.177
   8.836     556.020
   8.860     497.010
   8.883     375.781
   8.907     279.295
   8.931     252.820
   8.954     179.855
   8.978     127.890
   9.002     114.010
   9.027      78.917
   9.051      90.260
   9.075      68.178
   9.100      80.634
   9.124      66.921
   9.149      83.419
   9.173      74.728
   9.198     102.791
   9.223     134.132
   9.248     148.368
   9.273     150.465
   9.299     150.336
   9.324     129.015
   9.349     121.345
   9.375      99.205
   9.401      94.385
   9.426      58.594
   9.452      45.205
   9.478      31.982
   9.504      31.709
   9.530      32.598
   9.557      18.193
   9.583      33.947
   9.610      16.479
   9.636      27.002
   9.663      37.882
   9.690      35.502
   9.717      36.579
   9.744      18.357
   9.771      36.441
   9.798      35.700
   9.826      34.806
   9.853      19.118
   9.881      20.102
   9.909      19.124
   9.936       9.996
   9.964      41.212
   9.992      13.920
  10.021      30.062
  10.049      37.071
  10.078      30.765
  10.106      47.807
  10.135      63.987
  10.164      80.850
  10.193      75.949
  10.222      67.041
  10.251      48.903
  10.280      52.157
  10.310      40.930
  10.339      33.094
  10.369      19.282
  10.399      32.113
  10.429      14.696
  10.459      26.403
  10.489      15.983
  10.519      19.215
  10.550      12.135
  10.581      19.220
  10.611      29.253
  10.642      34.268
  10.673       1.739
  10.704      16.340
  10.736      28.022
  10.767      18.667
  10.799      20.757
  10.830      27.655
  10.862      21.717
  10.894      23.774
  10.926      15.913
  10.959      21.210
  10.991      18.186
  11.024      33.867
  11.056      19.267
  11.089      12.328
  11.122      19.019
  11.155      31.568
  11.189      24.964
  11.222      31.612
  11.256      34.623
  11.289      36.814
  11.323      28.482
  11.357      34.955
  11.392      29.473
  11.426      41.231
  11.460      70.498
  11.495     105.796
  11.530     161.823
  11.565     321.971
  11.600     698.383
  11.635    1232.860
  11.671    1662.954
  11.706    1679.428
  11.742    1206.645
  11.769     803.773
  11.787     588.389
  11.805     420.192
  11.823     315.224
  11.842     204.496
  11.860     156.041
  11.878     144.332
  11.896     112.285
  11.915     119.004
  11.933     101.535
  11.951      77.028
  11.970      73.259
  11.988      50.678
  12.007      71.805
  12.025      75.559
  12.044      63.365
  12.063      76.726
  12.081      64.959
  12.100      69.816
  12.119      63.534
  12.138      91.224
  12.156     103.209
  12.175     110.891
  12.194     125.808
  12.213     141.360
  12.232     185.908
  12.252     242.587
  12.271     325.498
  12.290     459.303
  12.309     633.513
  12.328     854.089
  12.348    1163.859
  12.367    1434.897
  12.386    1721.504
  12.406    1866.776
  12.425    1965.380
  12.445    1805.123
  12.465    1586.909
  12.484    1287.351
  12.504    1008.300
  12.524     752.096
  12.543     544.666
  12.563     379.780
  12.583     291.615
  12.603     229.200
  12.623     182.709
  12.643     152.818
  12.663     107.163
  12.683      88.717
  12.703      94.372
  12.724      87.351
  12.744      81.052
  12.764      72.743
  12.784      56.628
  12.805      58.660
  12.825      40.684
  12.846      45.579
  12.866      55.423
  12.887      46.485
  12.908      56.259
  12.928      37.154
  12.949      42.761
  12.970      54.039
  12.991      54.921
  13.012      25.216
  13.033      30.613
  13.054      15.893
  13.075      34.232
  13.096      35.899
  13.117      48.937
  13.138      40.515
  13.159      40.415
  13.181      31.493
  13.202      13.085
  13.223      25.655
  13.245      39.028
  13.266      34.423
  13.288      17.730
  13.310      39.530
  13.331      35.888
  13.353      30.245
  13.375      37.670
  13.397      50.665
  13.419      32.453
  13.440      34.371
  13.462      29.034
  13.485      26.198
  13.507      37.400
  13.529      10.257
  13.551      15.167
  13.573      21.882
  13.596      25.084
  13.618      18.593
  13.640      43.584
  13.663      24.661
  13.685      24.975
  13.708      36.716
  13.731      29.539
  13.753      45.146
  13.776      22.126
  13.799      30.431
  13.822      36.290
  13.845      34.970
  13.868      49.558
  13.891      29.661
  13.914      33.533
  13.937      19.492
  13.960      38.070
  13.984      25.889
  14.007      25.369
  14.030      45.255
  14.054      21.929
  14.077      26.779
  14.101      20.774
  14.125      25.701
  14.148      17.337
  14.172      23.109
  14.196      18.401
  14.220      19.639
  14.244       8.492
  14.268      37.246
  14.292       6.682
  14.316      22.932
  14.340      33.414
  14.364      31.508
  14.389      23.743
  14.413      36.580
  14.437      53.272
  14.462      60.485
  14.486     111.214
  14.511     150.621
  14.536     173.199
  14.560     187.551
  14.585     200.786
  14.610     182.528
  14.635     150.335
 14.660    117.161
 14.685       86.553
 14.710       38.018
 14.735       60.556
 14.761       40.950
 14.786       14.173
 14.811       25.764
 14.837       15.831
 14.862       12.719
 14.888       17.628
 14.913       37.669
 14.939       16.518
 14.965       21.811
 14.991       17.402
 15.017       16.168
 15.043       13.652
 15.069       37.532
 15.095       28.743
 15.121       22.946
 15.147       23.832
 15.174       10.508
 15.200       42.811
 15.226       40.044
 15.253       50.589
 15.279       65.201
 15.306       71.346
 15.333      102.390
 15.360      164.215
 15.387      177.324
 15.413      233.968
 15.441      219.747
 15.468      221.113
 15.495      185.778
 15.522      157.956
 15.549      120.491
 15.577      110.876
 15.604       56.655
 15.632       51.515
 15.659       45.659
 15.687       38.611
 15.715       31.113
 15.742       41.951
 15.770       42.359
 15.798       47.179
 15.826       39.709
 15.854       46.910
 15.883       54.265
 15.911       64.060
 15.939       78.311
 15.968      119.584
 15.996      179.756
 16.025      279.233
 16.053      414.928
 16.082      502.498
 16.111      563.393
 16.140      554.711
 16.169      455.129
 16.198      344.695
 16.227      240.670
 16.256      159.847
 16.285       98.698
 16.314       70.821
 16.344       49.374
 16.373       42.010
 16.403       48.420
 16.433       54.166
 16.462       32.911
 16.492       51.919
 16.522       56.211
 16.552       51.857
 16.582       63.373
 16.612      101.860
 16.642      119.482
 16.673      118.870
 16.703      119.096
 16.734       70.473
 16.764       67.806
 16.795       52.301
 16.826       53.039
 16.856       30.145
 16.887       35.185
 16.918       27.113
 16.949       30.357
 16.980       20.329
 17.012       15.357
 17.043       23.555
 17.074        3.310
  17.106      21.672
  17.138      16.763
  17.169      30.423
  17.201      24.872
  17.233      31.211
  17.265      29.310
  17.297      16.756
  17.329      10.502
  17.361       9.454
  17.393       6.922
  17.426       7.438
  17.458      18.552
  17.491      33.481
  17.523      22.707
  17.556      18.450
  17.589      14.183
  17.622      24.081
  17.655      21.637
  17.688      38.736
  17.721      25.383
  17.755      18.920
  17.788      39.945
  17.822      26.399
  17.855      44.183
  17.889      47.079
  17.923      61.918
  17.956      90.212
  17.990      94.916
  18.025     101.223
  18.059     121.338
  18.093      90.097
  18.127     106.028
  18.162      95.366
  18.196      66.406
  18.231      52.994
  18.266      42.351
  18.301      35.979
  18.336      43.625
  18.371      21.078
  18.406      23.702
  18.441      17.730
  18.476      35.504
  18.512      24.437
  18.547      29.547
  18.583      52.583
  18.619      26.376
  18.655      36.529
  18.691      35.570
  18.727      49.727
  18.763      61.269
  18.799      46.328
  18.836      62.657
  18.872      81.707
  18.909     110.706
  18.945     117.898
  18.982     165.485
  19.019     207.792
  19.056     237.468
  19.093     286.284
  19.131     344.357
  19.168     509.766
  19.205     824.084
  19.243    1210.604
  19.281    1567.385
  19.318    1800.902
  19.356    1725.437
  19.394    1462.941
  19.433    1026.777
  19.471     675.926
  19.509     420.765
  19.548     262.055
  19.586     186.631
  19.625     137.364
  19.664     111.421
  19.703      83.169
  19.742      55.516
  19.781      57.066
  19.820      67.028
  19.860      42.981
  19.899      45.864
  19.939      62.553
  19.978      45.061
  20.018      41.835
  20.058      44.430
  20.098      48.115
  20.139      45.771
  20.179      43.446
  20.219      59.861
  20.260      40.835
  20.301      36.651
  20.342      48.487
  20.383      44.102
  20.424      44.255
  20.465      43.746
  20.506      69.748
  20.548      85.869
  20.589     125.925
  20.631     140.605
  20.673     158.887
  20.715     139.777
  20.757     144.318
  20.799     157.670
  20.841     164.657
  20.884     238.399
  20.927     344.214
  20.969     555.630
  21.012     904.958
  21.055    1290.077
  21.098    1461.341
  21.142    1298.790
  21.185     958.575
  21.228     562.434
  21.272     312.972
  21.316     163.320
  21.360     106.633
  21.404      58.310
  21.448      49.692
  21.493      36.334
  21.537      35.254
  21.582      34.049
  21.626      34.249
  21.671      32.525
  21.716      21.885
  21.762      12.819
  21.807      20.541
  21.852      12.625
  21.898      16.815
  21.944      33.896
  21.990      17.184
  22.036      18.380
  22.082      18.564
  22.128      20.058
  22.175      17.362
  22.221      20.738
  22.268      16.776
  22.315      19.803
  22.362       9.314
  22.409      23.410
  22.457      16.022
  22.504      13.824
  22.552      22.585
  22.600      26.974
  22.648      23.171
  22.696      45.947
  22.744      51.483
  22.793      75.021
  22.841     153.459
  22.890     239.286
  22.939     314.892
  22.988     310.533
  23.037     276.875
  23.086     190.774
  23.136     124.009
  23.186      96.292
  23.235     139.966
  23.285     246.323
  23.336     505.891
  23.386     877.033
  23.436    1180.652
  23.487    1080.835
  23.538     764.042
  23.589     468.564
  23.640     268.346
  23.691     178.712
  23.743     119.117
  23.795      86.402
  23.846      66.146
  23.898      59.982
  23.951      49.207
  24.003      47.205
  24.055      70.436
  24.108     104.141
  24.161     172.934
  24.214     233.568
  24.267     261.040
  24.321     246.632
  24.374     186.403
  24.428     137.311
  24.482      93.634
  24.536      51.113
  24.590      38.769
  24.645      31.249
  24.699      24.119
  24.754      14.052
  24.809       1.103
  24.864      22.197
  24.920      10.820
  24.975      13.171
  25.031      12.928
  25.087      12.414
  25.143      17.628
  25.199      14.519
  25.256       7.628
  25.312       5.624
  25.369       7.600
  25.426       5.552
  25.484       3.965
  25.541       6.258
  25.599      14.277
  25.657      11.662
  25.715      33.766
  25.773      32.593
  25.831      22.665
  25.890      27.979
  25.949      25.561
  26.008      20.416
  26.067      30.926
  26.126      30.763
  26.186      31.666
  26.246      34.164
  26.306      53.459
  26.366      44.597
  26.427      56.065
  26.487      67.906
  26.548      66.511
  26.609      57.656
  26.671      46.714
  26.732      31.725
  26.794      14.641
  26.856      18.588
  26.918      14.853
  26.980      29.167
  27.043      24.323
  27.106      31.306
  27.169      46.971
  27.232      44.478
  27.295      39.786
  27.359      33.175
  27.423      29.139
  27.487      33.081
  27.552      43.897
  27.616      68.490
  27.681     105.528
  27.746     148.979
  27.811     204.805
  27.877     221.927
  27.942     152.315
  28.008      92.487
  28.075      79.930
  28.141      49.329
  28.208      55.501
  28.275      67.423
  28.342      64.195
  28.409      73.656
  28.477      42.841
  28.545      37.870
  28.613      33.087
  28.681      32.609
  28.750      29.205
  28.819      23.914
  28.888      26.734
  28.957      16.723
  29.027      23.707
  29.096      18.589
  29.167      20.930
  29.237       8.743
  29.308      20.281
  29.378      22.133
  29.450      28.201
  29.521      54.842
  29.593      90.510
  29.664     145.278
  29.737     135.709
  29.809      94.070
  29.882      50.744
  29.955      35.709
  30.028      24.976
  30.101      19.708
  30.175      16.636
  30.249      26.478
  30.323      28.913
  30.398      34.943
  30.473      35.381
 30.548       59.532
 30.623       89.244
 30.699      111.535
 30.775      218.714
 30.851      395.240
 30.928      492.147
 31.005      334.943
 31.082      163.498
 31.159       71.624
 31.237       45.244
 31.315       37.799
 31.393       22.533
 31.472       31.655
 31.551       36.839
 31.630       40.215
 31.709       57.277
 31.769       45.673
 31.809       61.040
 31.849       91.373
 31.889      165.019
 31.929      220.730
 31.970      344.774
 32.010      459.160
 32.050      604.533
 32.091      746.276
 32.131      728.393
 32.172      709.066
 32.213      568.660
 32.253      431.593
 32.294      282.081
 32.335      186.908
 32.376      135.496
 32.417       90.202
 32.459       68.046
 32.500       42.887
 32.541       35.758
 32.583       39.055
 32.624       27.010
 32.666       37.833
 32.707       37.477
 32.749       27.544
 32.791       37.487
 32.833       34.572
 32.875       33.376
 32.917       38.432
 32.959       32.286
 33.001       41.053
 33.043       48.323
 33.086       46.854
 33.128       49.792
 33.171       51.373
 33.214       74.799
 33.256       87.017
 33.299      130.985
 33.342      215.604
 33.385      366.409
 33.428      607.327
 33.471      866.065
 33.514     1151.927
 33.558     1299.731
 33.601     1204.911
 33.644      985.829
 33.688      714.608
 33.732      463.329
 33.775      263.938
 33.819      170.401
 33.863      115.952
 33.907       91.517
 33.951       88.973
 33.995       81.520
 34.039       76.476
 34.084       91.528
 34.128      132.714
 34.172      215.695
 34.217      346.611
 34.262      587.690
 34.306      864.293
 34.351     1123.282
 34.396     1251.151
 34.441     1128.188
 34.486      917.534
 34.532      657.920
 34.577      433.341
 34.622      287.105
 34.668      218.292
 34.713      215.186
 34.759      250.522
  34.805     340.286
  34.850     407.139
  34.896     453.459
  34.942     470.327
  34.988     499.854
  35.035     550.571
  35.081     686.624
  35.127     854.644
  35.174    1050.152
  35.220    1063.131
  35.267    1056.864
  35.314     826.565
  35.360     656.705
  35.407     443.806
  35.454     295.127
  35.501     167.152
  35.549     112.950
  35.596      78.402
  35.643      83.171
  35.691      57.492
  35.738      33.843
  35.786      33.921
  35.834      28.572
  35.882      29.412
  35.930      28.036
  35.978      11.868
  36.026      20.960
  36.074      20.726
  36.122       8.665
  36.171      20.060
  36.219      15.523
  36.268      11.538
  36.317      29.853
  36.366       9.524
  36.414       4.444
  36.464       5.337
  36.513      28.892
  36.562      34.688
  36.611      43.484
  36.661      68.347
  36.710      75.062
  36.760      73.571
  36.810      59.133
  36.859      33.034
  36.909      19.595
  36.959      27.218
  37.009      25.118
  37.060      13.614
  37.110      15.565
  37.160      -0.556
  37.211       6.755
  37.262       3.955
  37.312      12.352
  37.363      16.441
  37.414      14.939
  37.465      20.225
  37.517      10.365
  37.568      12.631
  37.619      17.478
  37.671      13.511
  37.722      18.093
  37.774      19.936
  37.826       7.786
  37.878      11.373
  37.930      16.416
  37.982      14.735
  38.034      20.658
  38.086      22.878
  38.139      27.530
  38.191      12.998
  38.244      26.655
  38.297      19.058
  38.350      10.612
  38.403      21.005
  38.456      29.808
  38.509      21.622
  38.562      26.741
  38.616      13.943
  38.669      18.000
  38.723      19.267
  38.777      15.515
  38.831      31.790
  38.885      29.498
  38.939      33.062
  38.993      36.908
  39.047      47.259
  39.102      57.439
  39.156     114.663
  39.211     171.183
  39.266     316.689
  39.321     509.877
  39.376     735.778
  39.431     834.423
  39.486     823.538
  39.541     672.441
  39.597     476.967
  39.652     296.127
  39.708     170.113
  39.764     110.474
  39.820      96.503
  39.876      79.472
  39.932      71.514
  39.989      65.664
  40.045      54.058
  40.102      52.708
  40.158      46.331
  40.215      34.908
  40.272      33.598
  40.329      52.383
  40.386      52.601
  40.443      57.452
  40.501      41.362
  40.558      52.862
  40.616      45.994
  40.674      42.985
  40.732      24.239
  40.790      32.364
  40.848      22.732
  40.906      21.776
  40.964      28.058
  41.023      29.799
  41.081      23.180
  41.140      34.851
  41.199      40.495
  41.258      35.274
  41.317      44.885
  41.377      62.788
  41.436      73.529
  41.495      69.801
  41.555      64.119
  41.615     109.283
  41.675     174.579
  41.735     314.122
  41.795     572.034
  41.855     832.333
  41.916     961.508
  41.976     844.310
  42.037     595.141
  42.098     365.335
  42.159     241.517
  42.220     170.029
  42.281     151.156
  42.342     101.691
  42.404      78.987
  42.465      64.360
  42.527      81.711
  42.589     123.381
  42.651     185.599
  42.713     262.393
  42.776     269.463
  42.838     220.846
  42.901     146.414
  42.963      87.849
  43.026      53.303
  43.089      47.399
  43.152      62.439
  43.215     107.455
  43.279     209.319
  43.342     326.233
  43.406     428.938
  43.470     436.682
  43.534     345.298
  43.598     211.563
  43.662     109.976
  43.727      71.494
  43.791      46.440
  43.856      60.233
  43.921      69.505
  43.986      77.758
  44.051      74.220
  44.116      47.676
  44.181      42.851
  44.247      36.707
  44.312      39.562
  44.378      29.944
  44.444      58.363
  44.510     100.222
  44.577     135.113
  44.643     158.103
  44.710     160.873
  44.776     130.530
  44.843      84.791
  44.910      35.121
  44.977      35.454
  45.045      15.683
  45.112      25.013
  45.180      28.350
  45.248       9.043
  45.315      22.949
  45.384      17.858
  45.452      14.721
  45.520      14.398
  45.589      14.821
  45.657      30.667
  45.726      40.724
  45.795      42.105
  45.864      54.145
  45.934      36.250
  46.003      38.245
  46.073      31.178
  46.143      30.007
  46.213      15.640
  46.283      19.450
  46.353      20.766
  46.423      28.957
  46.494      30.100
  46.565      60.077
  46.636      79.797
  46.707     106.037
  46.778     145.738
  46.849     167.067
  46.921     190.390
  46.993     204.055
  47.065     225.666
  47.137     202.492
  47.209     142.103
  47.281      93.479
  47.354      63.395
  47.426      55.416
  47.499      35.428
  47.572      37.378
  47.646      45.647
  47.719      63.625
  47.793     107.169
  47.866     209.040
  47.940     346.548
  48.014     412.842
  48.089     362.830
  48.163     283.897
  48.238     145.921
  48.312     104.691
  48.387      70.854
  48.462      57.773
  48.538      82.675
  48.613     120.777
  48.689     184.196
  48.765     246.183
  48.841     225.741
  48.917     178.811
  48.993     107.839
  49.070      71.051
  49.146      50.582
  49.223     104.502
  49.300     237.725
  49.378     463.022
  49.455     647.521
  49.533     660.141
  49.610     455.112
  49.688     249.234
  49.767     112.390
  49.845      64.830
  49.923      68.705
  50.002     110.476
  50.081     153.256
  50.160     189.587
  50.239     184.504
  50.319     208.174
  50.399     291.696
  50.478     380.429
  50.558     354.918
  50.639     238.681
  50.719     142.311
  50.800      67.565
  50.881      69.697
  50.962      78.316
  51.043     129.440
  51.124     228.564
  51.206     397.611
  51.287     531.942
  51.369     586.370
  51.452     512.384
  51.534     351.839
  51.617     267.122
 51.699      209.350
 51.782      146.700
 51.865       93.327
 51.949       72.613
 52.032       58.160
 52.116       68.341
 52.200       53.317
 52.284       37.085
 52.369       35.976
 52.453       30.994
 52.538       20.672
 52.623       32.288
 52.708       11.921
 52.794       30.430
 52.879       27.004
 52.965       23.186
 53.051       25.664
 53.137       35.745
 53.224       56.131
 53.310       59.125
 53.397       78.317
 53.484       96.231
 53.572       72.397
 53.659       53.765
 53.747       42.081
 53.835       21.231
 53.923       29.465
 54.011       30.646
 54.100       29.434
 54.189       48.993
 54.278       41.291
 54.367       45.676
 54.457       28.651
 54.546       46.061
 54.636       53.230
 54.726       76.873
 54.817      136.672
 54.907      306.321
 54.998      583.876
 55.089      878.908
 55.180      916.007
 55.272      686.834
 55.363      377.190
 55.455      180.763
 55.548       97.064
 55.640      112.338
 55.733      130.565
 55.825      122.073
 55.919      135.381
 56.012      134.626
 56.105      108.070
 56.199      152.782
 56.293      274.289
 56.388      548.520
 56.482      859.388
 56.577      966.590
 56.672      744.364
 56.767      400.478
 56.862      189.402
 56.958       79.620
 57.054       53.693
 57.150       44.025
 57.247       48.912
 57.343       45.952
 57.440       49.607
 57.537       49.786
 57.635       67.307
 57.733      112.953
 57.830      132.582
 57.929      229.993
 58.027      392.129
 58.126      515.931
 58.225      429.066
 58.324      273.807
 58.423      145.316
 58.523      130.429
 58.623      167.825
 58.723      161.968
 58.826      123.793
 58.924       76.796
 59.025       42.791
 59.126       31.326
 59.228       28.748
 59.329       17.123
 59.431       25.893
 59.534       20.834
 59.636       24.477
  59.739      45.047
  59.842      32.229
  59.945      34.218
  60.049      53.219
  60.153      59.404
  60.257      54.618
  60.361      51.843
  60.466      46.336
  60.571      27.595
  60.676      41.009
  60.782      65.420
  60.887      72.465
  60.994      70.552
  61.100      85.899
  61.206      78.012
  61.313      45.589
  61.420      30.646
  61.528       7.246
  61.636      11.129
  61.744       4.089
  61.852       2.441
  61.961      14.076
  62.069      12.727
  62.179      13.478
  62.288      14.178
  62.398      12.352
  62.508      10.686
  62.618      18.277
  62.729      27.139
  62.839       9.443
  62.951      13.779
  63.062      22.836
  63.174      13.278
  63.286      12.926
  63.398      16.464
  63.511      15.969
  63.624      15.355
  63.737      11.702
  63.851       9.551
  63.965      42.425
  64.079     119.010
  64.193     345.648
  64.308     662.664
  64.423     666.320
  64.539     375.951
  64.655     150.987
  64.771      43.696
  64.887      25.834
  65.004      21.796
  65.121      19.712
  65.238      14.063
  65.355      20.419
  65.473      22.657
  65.592      43.134
  65.710     106.503
  65.829     144.598
  65.948     144.750
  66.068      95.110
  66.188      86.524
  66.308     105.692
  66.428     147.827
  66.549     129.159
  66.671      71.535
  66.792      41.398
  66.914      25.375
  67.036      28.937
  67.159      30.210
  67.281      45.689
  67.405      29.677
  67.528      27.312
  67.652      22.030
  67.776      16.975
  67.901      21.445
  68.026      10.424
  68.151      15.739
  68.276      19.435
  68.402      29.437
  68.529      32.756
  68.655      33.532
  68.782      27.690
  68.910      20.240
  69.005      44.257
  69.069      30.310
  69.133      54.114
  69.197      64.250
  69.262      73.984
  69.326      59.671
  69.390      65.751
  69.455      45.111
  69.519      42.891
  69.584      29.794
  69.649      18.863
  69.714      24.619
  69.778      19.209
  69.843      23.308
  69.909      25.843
  69.974      31.506
  70.039      38.245
  70.104      59.599
  70.170     111.180
  70.235     192.381
  70.301     263.547
  70.367     354.475
  70.433     408.495
  70.499     401.927
  70.565     349.962
  70.631     315.785
  70.697     251.401
  70.763     177.874
  70.830     145.450
  70.896     115.218
  70.963     113.118
  71.029      72.326
  71.096      72.472
  71.163      63.090
  71.230      59.859
  71.297      31.869
  71.364      39.121
  71.431      30.481
  71.499      29.486
  71.566      27.962
  71.634      30.721
  71.701      30.597
  71.769      35.753
  71.837      41.962
  71.905      55.558
  71.973      63.005
  72.041      59.231
  72.109      99.788
  72.177     118.364
  72.246     166.800
  72.314     242.532
  72.383     270.844
  72.451     262.637
  72.520     219.457
  72.589     145.525
  72.658     113.506
  72.727      77.845
  72.796      60.467
  72.866      41.554
  72.935      45.688
  73.005      39.343
  73.074      23.580
  73.144      19.736
  73.214      31.198
  73.283      18.670
  73.353      22.927
  73.423      11.008
  73.494      15.102
  73.564      25.868
  73.634      24.185
  73.705      15.144
  73.775      23.154
  73.846      23.705
  73.917      38.330
  73.988      36.726
  74.059      42.369
  74.130      46.602
  74.201      68.445
  74.272     113.862
  74.344     195.062
  74.415     350.820
  74.487     463.980
  74.558     556.574
  74.630     611.128
  74.702     464.598
  74.774     331.517
  74.846     194.749
  74.918     129.393
  74.991      75.232
  75.063      68.385
  75.136      74.046
  75.208      78.812
  75.281      97.282
  75.354      69.870
  75.427      73.621
  75.500      61.309
  75.573      66.731
  75.646      55.492
  75.720      72.484
  75.793      54.921
  75.867      32.879
  75.941      38.541
  76.014      42.091
  76.088      29.515
  76.162      33.609
  76.237      20.753
  76.311      17.740
  76.385      18.964
  76.460      31.567
  76.534      31.757
  76.609      21.776
  76.684      29.102
  76.759      16.396
  76.834      23.251
  76.909      38.674
  76.984      23.470
  77.059      31.948
  77.135      35.932
  77.210      34.241
  77.286      54.204
  77.362      66.914
  77.438     107.800
  77.514     112.512
  77.590     124.686
  77.666     113.624
  77.742      93.345
  77.819      69.754
  77.895      69.680
  77.972     100.576
  78.049     143.297
  78.126     170.535
  78.203     165.339
  78.280     135.344
  78.357      98.865
  78.434      77.315
  78.512      65.701
  78.589      51.219
  78.667      30.404
  78.745      33.721
  78.823      12.312
  78.901       8.037
  78.979      20.224
  79.057      22.559
  79.136      14.907
  79.214      18.680
  79.293      23.567
  79.372      32.165
  79.451      29.808
  79.530      63.217
  79.609     110.614
  79.688     122.595
  79.767     134.700
  79.847     108.091
  79.926      92.587
  80.006      71.851
  80.086      47.077
  80.166      69.672
  80.246      62.316
  80.326      65.098
  80.406      58.071
  80.487      55.319
  80.567      61.968
  80.648      50.868
  80.729      65.100
  80.810      74.785
  80.891      70.319
  80.972      57.530
  81.053      50.373
  81.135      52.103
  81.216      57.512
  81.298      91.327
  81.379     105.320
  81.461     124.324
  81.543     108.825
  81.625     106.905
  81.708      76.715
  81.790      40.831
  81.873      32.240
  81.955      24.761
  82.038      20.750
  82.121      25.838
  82.204      39.670
  82.287      65.198
  82.370     126.674
  82.454     194.158
  82.537     348.833
  82.621     493.540
  82.705     587.728
  82.788     531.271
  82.872     409.162
  82.957     271.484
  83.041     157.926
 83.125       97.006
 83.210       69.458
 83.294       85.666
 83.379      123.816
 83.464      210.472
 83.549      247.346
 83.634      302.712
 83.720      255.250
 83.805      201.090
 83.891      166.131
 83.976      128.088
 84.062      123.216
 84.148      111.383
 84.234      130.803
 84.321      111.705
 84.407      113.449
 84.493       81.197
 84.580       60.004
 84.667       76.548
 84.754       60.941
 84.841       46.727
 84.928       51.492
 85.015       45.740
 85.103       53.257
 85.190       34.912
 85.278       34.443
 85.366       21.711
 85.454       21.522
 85.542       14.026
 85.630       19.799
 85.718       20.434
 85.807       20.566
 85.896       19.660
 85.984       17.587
 86.073       11.742
 86.162       24.055
 86.252       11.172
 86.341        5.820
 86.431       15.414
 86.520       17.965
 86.610       40.807
 86.700       57.869
 86.790       76.914
 86.880       71.532
 86.970       48.105
 87.061       40.178
 87.151       29.816
 87.242       33.916
 87.333       17.948
 87.424       30.128
 87.515       41.350
 87.607       52.076
 87.698       63.802
 87.790       38.977
 87.881       46.557
 87.973       33.962
 88.065       21.013
 88.158       28.156
 88.250       26.156
 88.342       17.383
 88.435       29.662
 88.528       36.568
 88.621       26.154
 88.714       21.007
 88.807       39.531
 88.900       46.104
 88.994       23.232
 89.087       67.658
 89.181       57.434
 89.275       76.729
 89.369       69.721
 89.463       48.736
 89.558       50.562
 89.652       64.623
 89.747       84.832
 89.842      101.333
 89.937      132.529
 90.032      195.958
 90.127      395.087
 90.223      842.342
 90.318     1398.395
 90.414     1781.953
 90.510     1703.011
 90.606     1204.636
 90.702      658.793
 90.799      314.237
 90.895      129.833
  90.992      98.969
  91.089      75.836
  91.186     112.851
  91.283      88.634
  91.380      59.273
  91.477      71.040
  91.575      53.156
  91.673      28.227
  91.771      62.479
  91.869      60.651
  91.967     103.892
  92.065     123.784
  92.164     133.608
  92.263     143.380
  92.361     205.220
  92.460     339.819
  92.560     482.820
  92.659     543.965
  92.758     485.350
  92.858     328.932
  92.958     168.954
  93.058     106.661
  93.158      65.099
  93.258      63.278
  93.359      67.108
  93.459      55.371
  93.560      42.601
  93.661      81.281
  93.762     173.845
  93.863     404.093
  93.965     781.877
  94.066    1195.835
  94.168    1384.977
  94.270    1125.605
  94.372     675.544
  94.475     334.558
  94.577     171.788
  94.680     108.053
  94.782     107.870
  94.885      76.236
  94.988      71.892
  95.092      49.962
  95.195      42.540
  95.299      38.205
  95.402      34.013
  95.506      19.743
  95.610      25.829
  95.715       6.762
  95.819      14.625
  95.924      24.235
  96.029      16.177
  96.134      16.820
  96.239      19.983
  96.344      13.057
  96.450       2.683
  96.555      17.628
  96.661      25.045
  96.767      10.796
  96.873      22.292
  96.980      17.621
  97.086      18.980
  97.193      10.520
  97.300       9.603
  97.407      18.563
  97.514      21.395
  97.621      36.770
  97.729      49.908
  97.837      75.535
  97.945     110.713
  98.053     125.804
  98.161     118.543
  98.270     106.710
  98.378      48.737
  98.487      33.049
  98.596      25.687
  98.705      14.706
  98.815      17.127
  98.924      18.083
  99.034      31.716
  99.144      28.131
  99.254      24.347
  99.364      47.998
  99.475      38.896
  99.586      37.119
  99.696      38.782
  99.807      17.879
  99.919      18.213
 100.030      22.436
 100.142      56.401
 100.253      97.711
 100.365     106.590
 100.478      93.031
 100.590      75.631
 100.703      69.277
 100.815     117.295
 100.928     192.288
 101.041     235.960
 101.155     228.069
 101.268     161.712
 101.382      84.290
 101.496      44.528
 101.610      42.251
 101.724      63.438
 101.838      66.417
 101.953      72.100
 102.068      49.421
 102.183      34.724
 102.298      29.806
 102.413      44.164
 102.529      73.394
 102.645     118.364
 102.761     198.828
 102.877     290.829
 102.993     275.082
 103.110     274.246
 103.227     209.043
 103.344     200.263
 103.461     285.372
 103.578     376.140
 103.696     371.106
 103.814     216.100
 103.932     125.184
 104.050      75.295
 104.168      45.631
 104.287      37.071
 104.406      27.571
 104.525      20.866
 104.644      23.522
 104.763      32.342
 104.883      71.038
 105.003     112.401
 105.123     117.805
 105.243     128.405
 105.364     113.715
 105.484      77.315
 105.605      69.466
 105.726      66.626
 105.847      67.306
 105.969      63.977
 106.091      93.023
 106.212      68.457
 106.335      49.359
 106.457      49.744
 106.579      36.771
 106.702      29.739
 106.825      27.202
 106.948      31.174
 107.072      27.825
 107.195      80.189
 107.319     185.455
 107.443     487.185
 107.567     868.128
 107.692    1095.208
 107.816     963.916
 107.941     575.644
 108.066     309.632
 108.192     185.141
 108.317     100.695
 108.443      74.423
 108.569      74.924
 108.695     139.686
 108.822     239.616
 108.948     314.086
 109.075     272.106
 109.202     157.496
 109.329      99.768
 109.457      99.045
 109.585     204.235
 109.713     439.889
 109.841     627.455
 109.969     663.168
 110.098     428.661
 110.227     215.456
 110.356      84.623
 110.485      42.401
 110.615      23.691
 110.745      27.443
 110.875      18.206
 111.005      17.440
 111.135      28.520
 111.266      47.588
 111.397      72.387
 111.528     149.841
 111.659     211.869
 111.791     231.303
 111.923     157.905
 112.055      82.118
 112.187      38.543
 112.320      26.127
 112.453      38.927
 112.586      65.671
 112.719     135.934
 112.852     188.414
 112.986     169.747
 113.120     127.373
 113.254      75.975
 113.389      78.554
 113.523      71.992
 113.658      69.323
 113.794      34.174
 113.929      37.592
 114.065       2.188
 114.201      15.985
 114.337      11.942
 114.473      20.618
 114.610      12.511
 114.747      34.082
 114.884      62.899
 115.021      98.555
 115.159     118.543
 115.297      95.656
 115.435      70.584
 115.573      57.683
 115.712      67.367
 115.850      99.292
 115.990      94.712
 116.129      38.076
 116.269       7.893
 116.408       6.095
 116.548      11.802
 116.689      21.971
 116.829      23.185
 116.970      25.418
 117.111      25.391
 117.253      13.792
 117.394      25.273
 117.536      19.642
 117.679      19.690
 117.821      20.926
 117.964      31.689
 118.107      37.869
 118.250      72.734
 118.393     150.383
 118.501     276.326
 118.573     349.567
 118.645     408.857
 118.717     449.322
 118.789     452.967
 118.861     357.540
 118.933     281.803
 119.006     213.617
 119.078     129.838
 119.151      72.197
 119.223      48.481
 119.296      18.427
 119.368      18.422
 119.441       8.287
 119.514      19.766
 119.587      15.899
 119.660       8.206
 119.733       5.845
 119.806      17.032
 119.879       4.540
 119.952      18.666
 120.025      13.255
 120.098       7.414
 120.172       9.214
 120.245      27.261
 120.319      10.817
 120.392      17.221
 120.466      11.812
 120.540      24.228
 120.613      31.599
 120.687      22.896
 120.761      17.956
 120.835      34.015
 120.909      42.383
 120.983      35.620
 121.058      45.625
 121.132      45.891
 121.206      32.178
 121.281      38.725
 121.355      24.642
121.430       49.802
121.504       64.259
121.579      110.661
121.654      148.945
121.728      230.616
121.803      310.860
121.878      370.983
121.953      374.629
122.028      359.850
122.104      327.504
122.179      265.495
122.254      211.515
122.329      159.632
122.405      129.417
122.480       99.245
122.556       70.928
122.632       71.617
122.707      100.200
122.783      133.137
122.859      172.562
122.935      181.755
123.011      194.374
123.087      179.816
123.163      145.050
123.239      102.957
123.315       66.396
123.392       51.045
123.468       42.273
123.545       20.161
123.621       38.464
123.698       22.332
123.775       13.807
123.851       11.329
123.928        5.714
124.005       23.333
124.082       14.015
124.159       24.120
124.236       28.890
124.314       36.895
124.391       46.981
124.468       84.681
124.546      126.883
124.623      150.287
124.701      171.990
124.778      182.820
124.856      152.232
124.934      152.949
125.012      146.665
125.090      121.967
125.168      142.305
125.246      167.911
125.324      260.813
125.402      356.751
125.480      502.307
125.559      634.376
125.637      709.554
125.716      668.602
125.794      565.774
125.873      477.613
125.952      360.962
126.030      256.914
126.109      205.454
126.188      177.185
126.267      192.043
126.346      174.330
126.426      130.319
126.505      133.263
126.584       99.404
126.664       80.307
126.743       60.678
126.823       22.694
126.902       12.379
126.982       10.589
127.062       -1.060
127.142       13.535
127.222       17.817
127.302       13.825
127.382       17.475
127.462       39.094
127.542       28.560
127.622       41.165
127.703       51.304
127.783       73.567
127.864       64.684
127.944       88.761
128.025      123.276
128.106      138.410
 128.187     128.074
 128.267     132.043
 128.348      91.863
 128.430      67.736
 128.511      76.164
 128.592      38.762
 128.673      -1.076
 128.755      34.235
 128.836      35.416
 128.918      19.982
 128.999      24.682
 129.081      24.744
 129.163      38.822
 129.244      46.078
 129.326      45.053
 129.408      56.424
 129.490      79.904
 129.573     123.335
 129.655     168.284
 129.737     255.862
 129.820     355.697
 129.902     437.954
 129.985     470.033
 130.067     434.739
 130.150     360.218
 130.233     257.825
 130.316     154.702
 130.399      93.521
 130.482      46.299
 130.565      47.402
 130.648      25.399
 130.731      27.953
 130.814      35.029
 130.898      40.036
 130.981      43.969
 131.065      48.982
 131.149      95.298
 131.232      82.219
 131.316      62.609
 131.400      64.522
 131.484      43.161
 131.568      31.920
 131.652      32.651
 131.736      38.437
 131.821      33.340
 131.905      47.177
 131.990      36.801
 132.074      42.857
 132.159      60.892
 132.243      39.929
 132.328      76.167
 132.413      69.137
 132.498     100.226
 132.583     126.478
 132.668     126.338
 132.753     103.523
 132.839     105.451
 132.924      95.453
 133.009      75.951
 133.095      65.724
 133.181     102.249
 133.266     157.751
 133.352     290.754
 133.438     402.268
 133.524     561.169
 133.610     691.190
 133.696     746.111
 133.782     660.192
 133.868     525.053
 133.955     383.226
 134.041     232.322
 134.128     137.877
 134.214      82.150
 134.301      59.851
 134.388      47.334
 134.475      55.469
 134.562      83.047
 134.649      71.387
 134.736      79.679
 134.823      78.571
 134.910     107.188
 134.998     121.154
 135.085     113.135
 135.173      89.254
 135.260     102.978
 135.348     100.682
 135.436      76.149
 135.524      88.153
 135.612      71.773
 135.700      47.299
 135.788      58.375
 135.876      94.242
 135.964     153.819
 136.053     285.820
 136.141     398.460
 136.230     548.214
 136.318     582.712
 136.407     562.914
 136.496     467.969
 136.585     349.414
 136.674     221.524
 136.763     146.705
 136.852      96.244
 136.941      48.447
 137.031      55.500
 137.120      99.627
 137.210     150.639
 137.299     247.571
 137.389     377.177
 137.479     484.909
 137.569     548.931
 137.659     533.672
 137.749     458.575
 137.839     321.497
 137.929     192.539
 138.019     114.930
 138.110      53.446
 138.200      39.765
 138.291      17.225
 138.382      21.487
 138.472      22.726
 138.563      24.404
 138.654      23.184
 138.745      36.550
 138.836      56.982
 138.927      64.313
 139.019      73.837
 139.110      84.027
 139.202     105.487
 139.293      97.737
 139.385      91.831
 139.477      40.349
 139.568      41.262
 139.660      46.178
 139.752      38.626
 139.845      54.139
 139.937      66.270
 140.029      63.040
 140.121      69.202
 140.214      63.309
 140.306      66.689
 140.399      57.514
 140.492      33.657
 140.585      45.765
 140.678      39.507
 140.771      19.170
 140.864      24.511
 140.957      19.441
 141.050      22.711
 141.144      10.448
 141.237      16.809
 141.331      34.359
 141.424      52.548
 141.518      90.941
 141.612     147.893
 141.706     253.754
 141.800     327.250
 141.894     437.884
 141.988     566.546
 142.083     618.391
 142.177     603.198
 142.272     519.290
 142.366     382.200
 142.461     257.118
 142.556     144.950
 142.651      75.042
 142.746      53.319
 142.841      33.698
 142.936      25.344
 143.031       9.852
 143.127      12.147
 143.222      14.871
 143.318       9.816
 143.413      -4.143
 143.509      12.259
 143.605      -0.501
 143.701      29.235
 143.797       9.622
 143.893       5.093
 143.989       2.837
 144.086       4.939
 144.182      -2.974
 144.279      21.646
 144.375      28.011
 144.472      15.645
 144.569      25.741
 144.666      22.899
 144.763      27.126
 144.860      23.360
 144.957      30.889
 145.054      47.383
 145.152      66.478
 145.249     173.489
 145.347     232.145
 145.445     349.726
 145.542     457.735
 145.640     490.755
 145.738     526.270
 145.836     485.182
 145.935     409.592
 146.033     302.218
 146.131     235.214
 146.230     132.753
 146.328      66.408
 146.427      37.967
 146.526      31.615
 146.625      28.261
 146.724      32.470
 146.823      46.535
 146.922      81.205
 147.021     119.289
 147.121     190.910
 147.220     248.004
 147.320     306.819
 147.420     291.034
 147.519     269.947
 147.619     210.189
 147.719     127.520
 147.819      80.165
 147.920      48.002
 148.020      42.609
 148.120      32.656
 148.221      29.059
 148.321      17.464
 148.422      28.563
 148.523      59.687
 148.624      71.638
 148.725      80.402
 148.826     116.471
 148.927     141.488
 149.029     141.192
 149.130     167.185
 149.232     140.778
 149.333     113.466
 149.435     118.158
 149.537     111.888
 149.639      91.550
 149.741      92.262
 149.843      98.880
 149.945     110.533
 150.048     122.226
 150.150      93.492
 150.253      92.308
 150.355      76.224
 150.458      80.849
 150.561      81.049
 150.664      65.084
 150.767      62.024
 150.870      43.622
 150.974      38.405
 151.077      45.321
 151.181      54.913
 151.284      71.906
 151.388     105.942
 151.492     139.880
 151.596     197.719
 151.700     216.766
 151.804     208.280
 151.908     176.892
 152.013     106.317
 152.117      73.970
 152.222      54.818
 152.327      34.105
 152.431      26.258
 152.536      30.145
 152.641      25.941
 152.747      31.267
 152.852      58.587
 152.957     110.736
 153.063     160.252
 153.168     286.023
 153.274     434.433
 153.380     555.995
153.486      576.230
153.592      502.546
153.698      376.138
153.804      230.950
153.910      116.560
154.017       65.219
154.123       34.309
154.230       38.404
154.337       42.202
154.444       49.886
154.551       76.083
154.658      110.813
154.765      131.033
154.873      139.351
154.980      132.107
155.088      110.545
155.195      117.119
155.303      148.023
155.411      167.976
155.519      273.199
155.627      316.253
155.735      326.868
155.844      295.506
155.952      283.114
156.061      310.397
156.169      329.243
156.278      308.559
156.387      324.626
156.496      325.974
156.605      401.092
156.715      446.928
156.824      470.080
156.934      473.636
157.043      382.891
157.153      307.346
157.263      228.502
157.373      201.331
157.483      174.891
157.593      163.068
157.703      129.871
157.814       87.210
157.924       61.918
158.035       45.015
158.146       42.988
158.257       50.269
158.368       56.264
158.479       60.329
158.590       39.789
158.701       25.477
158.813       34.728
158.924       28.937
159.036       24.735
159.148       27.866
159.260        1.803
159.372       26.138
159.484       31.601
159.596       37.903
159.709       93.676
159.821      138.391
159.934      192.660
160.047      176.409
160.160      146.127
160.273      138.930
160.386      113.775
160.499      164.837
160.612      328.379
160.726      547.115
160.840      867.059
160.953     1062.436
161.067     1085.206
161.181      890.224
161.295      606.929
161.409      354.390
161.524      160.543
161.638       82.532
161.753       51.868
161.867       36.108
161.982       42.764
162.097       25.853
162.212       22.887
162.328       36.148
162.443       19.053
162.558       14.505
162.674       24.466
162.790        5.148
162.905       22.141
163.021       36.483
 163.137      47.971
 163.254      81.845
 163.370     124.325
 163.486     171.466
 163.603     208.307
 163.719     152.208
 163.836     139.051
 163.953      79.827
 164.070      48.877
 164.187      22.758
 164.305      24.588
 164.422      26.682
 164.540      15.805
 164.657      21.828
 164.775      19.547
 164.893      25.790
 165.011      47.786
 165.129      61.103
 165.248     103.701
 165.366     237.645
 165.485     355.551
 165.603     486.756
 165.722     513.096
 165.841     464.492
 165.960     345.520
 166.079     233.413
 166.199     127.204
 166.318      83.761
 166.438      56.818
 166.558      41.802
 166.677       3.560
 166.797       6.357
 166.918       3.690
 167.038      10.913
 167.158       2.818
 167.279      22.388
 167.399      25.910
 167.520      61.389
 167.641      56.098
 167.762      81.306
 167.883     110.862
 168.004     126.436
 168.126     109.376
 168.247      75.064
 168.369      79.285
 168.491      80.144
 168.613      84.695
 168.735      88.270
 168.857      98.041
 168.979      54.590
 169.102      62.266
 169.225      37.323
 169.347      65.037
 169.470      46.771
 169.593      62.287
 169.716      21.970
 169.840      18.897
 169.963      41.334
 170.087      49.227
 170.210      67.575
 170.334     110.753
 170.458     113.849
 170.582      98.577
 170.706      81.024
 170.831      61.989
 170.955      43.728
 171.080      27.287
 171.205      29.645
 171.330      28.217
 171.455      63.997
 171.580     111.847
 171.705     127.778
 171.830     137.923
 171.956     122.719
 172.082      85.551
 172.208      44.775
 172.334      24.770
 172.460      15.731
 172.586      21.855
 172.713      10.951
 172.839      17.276
 172.966      15.467
 173.093      17.158
 173.220      15.977
 173.347      23.587
 173.474      46.422
 173.601      28.860
 173.729      88.600
 173.857     101.376
 173.984     117.014
 174.112     139.637
 174.240     145.751
 174.369     156.722
 174.497     131.452
 174.626     116.336
 174.754     128.666
 174.883     114.089
 175.012      75.454
 175.141      87.597
 175.270      65.147
 175.400      34.978
 175.529      32.180
 175.659      21.900
 175.789      22.757
 175.919      21.328
 176.049      15.611
 176.179      28.191
 176.309      48.537
 176.440      60.144
 176.571      11.933
 176.701      16.687
 176.832      48.923
 176.964      81.273
 177.095     177.030
 177.226     324.625
 177.358     514.512
 177.490     559.456
 177.621     533.122
 177.753     432.413
 177.885     258.545
 178.018     143.655
 178.150     150.180
 178.283     247.358
 178.416     416.374
 178.548     538.969
 178.681     565.756
 178.815     472.269
 178.948     353.151
 179.081     258.846
 179.215     309.783
 179.349     413.368
 179.483     468.073
 179.617     427.002
 179.751     355.709
 179.885     288.760
 180.020     296.593
 180.155     373.510
 180.289     397.268
 180.424     413.483
 180.560     335.623
 180.695     226.631
 180.830     122.704
 180.966      90.206
 181.102      83.721
 181.237      90.993
 181.374      80.996
 181.510      67.637
 181.646      45.328
 181.783      90.022
 181.919     110.425
 182.056     167.942
 182.193     258.977
 182.330     294.819
 182.467     300.756
 182.605     186.589
 182.742     126.297
 182.880      68.728
 183.018      38.784
 183.156      21.766
 183.294      13.120
 183.433       5.641
 183.571      38.166
 183.710      57.007
 183.849     114.880
 183.988     163.082
 184.127     175.912
 184.266     170.268
 184.406     125.813
 184.545      76.877
 184.685      26.352
 184.825      23.053
 184.965      25.879
 185.105      36.600
 185.246      33.570
 185.386      43.438
 185.527      85.246
 185.668     109.408
 185.809     105.231
 185.950      84.646
 186.092      69.363
 186.233      46.619
 186.375      31.137
 186.517      21.604
 186.659      20.726
 186.801      31.817
 186.944      16.285
 187.086      30.307
 187.229      17.708
 187.372      10.403
 187.515       7.137
 187.658       1.446
 187.801       7.492
 187.945      -3.893
 188.088      17.009
 188.232      20.122
 188.376      38.490
 188.520      49.029
 188.665      47.221
 188.809      74.963
 188.954     127.830
 189.099     227.292
 189.244     380.548
 189.389     543.955
 189.534     612.093
 189.680     537.996
 189.825     358.573
 189.971     184.309
 190.117     102.360
 190.263      38.334
 190.410      19.366
 190.556      21.660
 190.703      20.565
 190.850      20.573
 190.997      24.832
 191.144      29.245
 191.291      24.253
 191.439      35.262
 191.586      48.507
 191.734     118.773
 191.882     237.142
 192.030     399.620
 192.179     591.273
 192.327     671.029
 192.476     643.121
 192.625     425.725
 192.774     246.604
 192.923     104.668
 193.073      48.864
 193.222      35.991
 193.372      48.117
 193.522      44.341
 193.672      59.458
 193.822      59.791
 193.973      98.461
 194.124      82.088
 194.274      90.115
 194.425      26.012
 194.577      21.632
 194.728      51.006
 194.879      59.551
 195.031      68.509
 195.183      74.645
 195.335      39.606
 195.487      39.384
 195.640      26.793
 195.792      14.503
 195.945      16.720
 196.098      15.196
 196.251      13.923
 196.404      26.712
 196.558      23.124
 196.711      44.532
 196.865      73.151
 197.019     134.271
 197.174     182.391
 197.328     192.415
 197.482     158.646
 197.637     119.815
 197.792      64.446
 197.947      62.253
 198.103      56.747
 198.258      58.493
 198.414      59.593
 198.570      55.958
 198.726       1.198
 198.882       4.105
 199.038      -2.783
 199.195      18.511
 199.351      14.947
 199.508      53.907
ENDDATA           2432
ENDSUBENT         2446
SUBENT        10249004   20011130   20020117
BIB                  4          6
REACTION   (92-U-235(N,F),,SIG,,AV)
MONITOR    (92-U-235(N,F),,INT)
ERR-ANALYS Uncertainty estimated to be about 3% below 1 keV and
            8% in the region from 1 - 10 keV.
HISTORY    (19860825A) First 3 data points removed, have pointwise
                     data.
ENDBIB               6
COMMON               3          3
EN-NRM-MIN EN-NRM-MAX MONIT
EV         EV         B*EV
 100.       200.       2103.
ENDCOMMON            3
DATA                 3        196
EN-MIN     EN-MAX     DATA
EV         EV         B
 200.       250.        21.908
 250.       300.       19.921
 300.       350.       15.354
 350.       400.        11.332
 400.       450.       14.075
 450.       500.       13.832
 500.       550.        16.729
 550.       600.       14.418
 600.       650.       10.970
 650.       700.        12.445
 700.       750.       10.871
 750.       800.       11.682
 800.       850.         8.047
 850.       900.        8.574
 900.       950.        8.745
 950.      1000.         6.573
1000.      1050.        6.753
1050.      1100.       10.142
1100.      1150.         8.745
1150.      1200.       10.924
1200.      1250.        7.415
1250.      1300.         7.669
1300.      1350.        8.489
1350.      1400.        8.249
1400.      1450.         8.741
1450.      1500.        5.396
1500.      1550.        6.076
1550.      1600.         6.921
1600.      1650.        6.702
1650.      1700.        8.279
1700.      1750.         6.196
1750.      1800.        6.572
1800.      1850.        6.630
1850.      1900.         5.763
1900.      1950.        7.101
1950.      2000.        7.350
2000.      2050.         4.542
2050.      2100.        5.723
2100.      2150.        5.632
2150.      2200.         5.086
2200.      2250.        6.109
2250.      2300.        5.515
2300.      2350.         6.493
2350.      2400.        4.725
2400.      2450.        6.917
2450.      2500.         5.709
2500.      2550.        5.889
2550.      2600.        6.361
2600.      2650.         5.323
2650.      2700.        4.173
2700.      2750.        5.400
2750.      2800.         5.731
2800.      2850.        4.875
2850.      2900.        5.366
2900.      2950.         5.312
2950.      3000.        4.533
3000.      3050.        5.355
3050.      3100.         5.625
3100.      3150.        4.943
3150.      3200.        4.194
3200.      3250.         4.952
3250.      3300.        6.670
3300.      3350.        4.569
3350.      3400.         4.173
3400.      3450.        4.433
3450.      3500.        5.467
3500.      3550.         4.550
3550.      3600.        5.481
3600.      3650.        4.310
3650.      3700.         4.408
3700.      3750.        4.239
3750.      3800.        5.024
3800.      3850.         5.324
3850.      3900.        3.626
3900.      3950.        4.833
3950.      4000.         5.111
4000.      4050.        4.512
4050.      4100.        4.430
4100.      4150.         3.810
4150.      4200.        4.771
4200.      4250.         5.650
4250.      4300.         5.071
4300.      4350.         4.543
4350.      4400.         4.733
4400.      4450.         4.751
4450.      4500.         5.158
4500.      4550.         4.133
4550.      4600.         4.642
4600.      4650.         3.852
4650.      4700.         4.432
4700.      4750.         3.510
4750.      4800.         3.740
4800.      4850.         3.753
4850.      4900.         4.893
4900.      4950.         2.893
4950.      5000.         4.028
5000.      5050.         4.424
5050.      5100.         3.853
5100.      5150.         3.727
5150.      5200.         3.561
5200.      5250.         3.642
5250.      5300.         4.308
5300.      5350.         4.170
5350.      5400.         4.242
5400.      5450.         3.501
5450.      5500.         4.631
5500.      5550.         4.873
5550.      5600.         3.112
5600.      5650.         3.126
5650.      5700.         3.115
5700.      5750.         3.604
5750.      5800.         3.284
5800.      5850.         4.082
5850.      5900.         2.610
5900.      5950.         3.479
5950.      6000.         4.050
6000.      6050.         3.171
6050.      6100.         3.103
6100.      6150.         2.359
6150.      6200.         4.553
6200.      6250.         5.885
6250.      6300.         3.089
6300.      6350.         3.017
6350.      6400.         3.573
6400.      6450.         5.417
6450.      6500.         3.327
6500.      6550.         3.011
6550.      6600.         4.180
6600.      6650.         3.054
6650.      6700.         2.964
6700.      6750.         3.170
6750.      6800.         3.481
6800.      6850.         2.897
6850.      6900.         3.667
6900.      6950.         5.749
6950.      7000.         3.561
7000.      7050.         3.773
7050.      7100.         3.203
7100.      7150.         2.675
7150.      7200.         3.474
7200.      7250.         2.965
7250.      7300.         2.887
7300.      7350.         3.920
7350.      7400.         3.010
7400.      7450.         3.074
7450.      7500.         3.621
7500.      7550.         3.042
7550.      7600.         2.978
7600.      7650.         3.271
7650.      7700.         2.420
7700.      7750.         3.197
7750.      7800.         2.845
7800.      7850.         5.230
7850.      7900.         3.310
7900.      7950.         2.706
7950.      8000.         2.890
8000.      8050.         3.159
8050.      8100.         2.959
8100.      8150.         2.807
8150.      8200.         3.822
8200.      8250.         2.686
8250.      8300.         2.841
8300.      8350.         3.195
8350.      8400.         3.628
8400.      8450.         3.201
8450.      8500.         2.731
8500.      8550.         3.183
8550.      8600.         3.663
8600.      8650.         3.333
8650.      8700.         3.470
8700.      8750.         3.233
8750.      8800.         3.507
8800.      8850.         3.322
8850.      8900.         3.241
8900.      8950.         2.415
8950.      9000.         3.102
9000.      9050.         3.209
9050.      9100.         3.488
9100.      9150.         3.204
9150.      9200.         3.388
9200.      9250.         2.896
9250.      9300.         3.012
9300.      9350.         3.277
9350.      9400.         3.363
9400.      9450.         3.314
9450.      9500.         2.967
9500.      9550.         2.977
9550.      9600.         2.894
9600.      9650.         2.848
9650.      9700.         3.424
9700.      9750.         3.334
9750.      9800.         2.933
9800.      9850.         3.036
9850.      9900.         3.601
9900.      9950.         2.510
9950.      10000.        2.518
ENDDATA            198
ENDSUBENT          213
SUBENT        10249005   20011130   20020117
BIB                  5         10
REACTION   (92-U-235(N,G)92-U-236,,SIG,,AV)
MONITOR    (92-U-235(N,G)92-U-236,,INT)
ERR-ANALYS Total estimated error about 6% between 100 eV and 1
            keV and about 8% between 1 and 10 keV.
COMMENT    From 5675 to 6325 eV the capture cross section could
            not be measured accurately because of a resonance in
            Al.
HISTORY    (19860825A) First 3 data points removed, have
                       pointwise data.
           (19910903U) MONITOR corrected
ENDBIB              10
COMMON               3          3
EN-NRM-MIN EN-NRM-MAX MONIT
EV         EV         B*EV
 100.       200.       1145.
ENDCOMMON            3
DATA                 3        181
EN-MIN     EN-MAX     DATA
EV         EV         B
 200.       250.        11.802
 250.       300.        7.002
 300.       350.        7.498
 350.       400.         5.347
 400.       450.        4.455
 450.       500.        5.092
 500.       550.         6.542
 550.       600.        4.696
 600.       650.        5.241
 650.       700.         3.741
 700.       750.        5.403
 750.       800.        4.108
 800.       850.         3.571
 850.       900.        4.382
 900.       950.        5.314
 950.      1000.         4.327
1000.      1050.        4.756
1050.      1100.        4.498
1100.      1150.         3.044
1150.      1200.        3.594
1200.      1250.        3.120
1250.      1300.         2.213
1300.      1350.        2.663
1350.      1400.        1.833
1400.      1450.         2.952
1450.      1500.        2.123
1500.      1550.        2.677
1550.      1600.         2.317
1600.      1650.        1.937
1650.      1700.        2.246
1700.      1750.         1.712
1750.      1800.        1.789
1800.      1850.        2.196
1850.      1900.         2.175
1900.      1950.        3.045
1950.      2000.        2.406
2000.      2050.         3.013
2050.      2100.        2.396
2100.      2150.        2.438
2150.      2200.         1.739
2200.      2250.        2.423
2250.      2300.        1.892
2300.      2350.         2.048
2350.      2400.        0.936
2400.      2450.        2.201
2450.      2500.         1.445
2500.      2550.        2.014
2550.      2600.        2.595
2600.      2650.         2.011
2650.      2700.        1.822
2700.      2750.        2.347
2750.      2800.         1.656
2800.      2850.        1.546
2850.      2900.        1.287
2900.      2950.         1.456
2950.      3000.        1.609
3000.      3050.        1.864
3050.      3100.         1.486
3100.      3150.        1.695
3150.      3200.        1.310
3200.      3250.         2.001
3250.      3300.        1.650
3300.      3350.        1.124
3350.      3400.         1.792
3400.      3450.        0.946
3450.      3500.        1.291
3500.      3550.         1.058
3550.      3600.        1.717
3600.      3650.        1.394
3650.      3700.         1.324
3700.      3750.        1.521
3750.      3800.        1.610
3800.      3850.         1.308
3850.      3900.        1.380
3900.      3950.        1.868
3950.      4000.         0.933
4000.      4050.        1.955
4050.      4100.        1.901
4100.      4150.         2.254
4150.      4200.        2.279
4200.      4250.         1.501
4250.      4300.         1.519
4300.      4350.         1.173
4350.      4400.         1.093
4400.      4450.         1.143
4450.      4500.         1.211
4500.      4550.         1.293
4550.      4600.         1.971
4600.      4650.         1.579
4650.      4700.         1.125
4700.      4750.         1.364
4750.      4800.         1.208
4800.      4850.         1.612
4850.      4900.         1.024
4900.      4950.         0.828
4950.      5000.         1.339
5000.      5050.         1.217
5050.      5100.         1.444
5100.      5150.         0.950
5150.      5200.         2.072
5200.      5250.         1.135
5250.      5300.         1.048
5300.      5350.         1.180
5350.      5400.         1.039
5400.      5450.         0.996
5450.      5500.         1.030
5500.      5550.         1.081
5550.      5600.         1.862
6350.      6400.         1.511
6400.      6450.         0.141
6450.      6500.         1.465
6500.      6550.         1.775
6550.      6600.         0.895
6600.      6650.         1.466
6650.      6700.         1.430
6700.      6750.         1.938
6750.      6800.         0.819
6800.      6850.         1.745
6850.      6900.         1.102
6900.      6950.         1.004
6950.      7000.         1.602
7000.      7050.         1.231
7050.      7100.         1.089
7100.      7150.         1.492
7150.      7200.         0.789
7200.      7250.         1.316
7250.      7300.         1.671
7300.      7350.         1.897
7350.      7400.         1.267
7400.      7450.         2.247
7450.      7500.         1.209
7500.      7550.         1.213
7550.      7600.         1.310
7600.      7650.         1.355
7650.      7700.         1.385
7700.      7750.         1.436
7750.      7800.         1.716
7800.      7850.         1.242
7850.      7900.         1.313
7900.      7950.         1.371
7950.      8000.         1.574
8000.      8050.         1.508
8050.      8100.         1.351
8100.      8150.         1.142
8150.      8200.         1.134
8200.      8250.         1.884
8250.      8300.         1.950
8300.      8350.         2.029
8350.      8400.         1.536
8400.      8450.         1.637
8450.      8500.         1.486
8500.      8550.         1.570
8550.      8600.         1.373
8600.      8650.         1.468
8650.      8700.         1.547
8700.      8750.         1.637
8750.      8800.         0.925
8800.      8850.         0.526
8850.      8900.         0.630
8900.      8950.         1.033
8950.      9000.         1.301
9000.      9050.         1.573
9050.      9100.         1.492
9100.      9150.         1.203
9150.      9200.         1.181
9200.      9250.         1.629
9250.      9300.         1.231
9300.      9350.         1.382
9350.      9400.         1.315
9400.      9450.         1.111
9450.      9500.         1.213
9500.      9550.         1.449
9550.      9600.         1.342
9600.      9650.         0.943
9650.      9700.         0.842
9700.      9750.         1.004
9750.      9800.         1.176
9800.      9850.         1.174
9850.      9900.         0.844
9900.      9950.         1.089
9950.      10000.        1.148
ENDDATA            183
ENDSUBENT          202
ENDENTRY             5
