ENTRY            10507   20040427   20040517
SUBENT        10507001   20040427   20040517
BIB                 13         18
INSTITUTE  (1USACOL)
REFERENCE  (J,PR/C,8,1813,197311)
AUTHOR     (H.S.Camarda,H.I.Liou,G.Hacken,F.Rahn,W.Makofske,
            M.Slagowitz,S.Wynchank,J.Rainwater)
TITLE      Neutron Resonance Spectroscopy. XII. The Separated
            Isotopes of W.
FACILITY   (SYNCH,1USACOL) Nevis Synchrocyclotron
INC-SOURCE (EVAP) Evaporation neutrons from lead.
SAMPLE     Enriched and natural tungsten samples
METHOD     (TOF) Time-of-flight
DETECTOR   (SCIN) Scintillator for self-indication measurements
           (NAICR) Sodium-iodide crystals viewing a boron slab
CORRECTION Multiple scattering corrections have been applied
ERR-ANALYS (DATA-ERR) No information on source of uncertainties.
STATUS     (APRVD) Approved by author 1976/2/25
HISTORY    (19750509C)
           (19810529A) Converted to REACTION formalism
           (20040427A) Updated to new date formats, lower case.
ENDBIB              18
NOCOMMON             0          0
ENDSUBENT           21
SUBENT        10507002   20040427   20040517
BIB                  1          2
REACTION  1(74-W-182(N,0),,D)
          2(74-W-182(N,EL),,STF)
ENDBIB               2
COMMON               1          3
MOMENTUM L
NO-DIM
0.
ENDCOMMON            3
DATA                 6          1
EN-MIN     EN-MAX     DATA      1DATA-ERR  1DATA      2DATA-ERR  2
KEV        KEV        EV         EV         NO-DIM     NO-DIM
0.0        13.253        6.63E+01    3.2E+00   2.40E-04   0.31E-04
ENDDATA              3
ENDSUBENT           14
SUBENT        10507003   20040427   20040517
BIB                  1          2
REACTION  1(74-W-183(N,0),,D)
          2(74-W-183(N,EL),,STF)
ENDBIB               2
COMMON               1          3
MOMENTUM L
NO-DIM
0.
ENDCOMMON            3
DATA                 6          1
EN-MIN     EN-MAX     DATA      1DATA-ERR  1DATA      2DATA-ERR  2
KEV        KEV        EV         EV         NO-DIM     NO-DIM
0.0        2.640         1.32E+01    0.7E+00   1.65E-04   0.32E-04
ENDDATA              3
ENDSUBENT           14
SUBENT        10507004   20040427   20040517
BIB                  1          2
REACTION  1(74-W-184(N,0),,D)
          2(74-W-184(N,EL),,STF)
ENDBIB               2
COMMON               1          3
MOMENTUM L
NO-DIM
0.
ENDCOMMON            3
DATA                 6          1
EN-MIN     EN-MAX     DATA      1DATA-ERR  1DATA      2DATA-ERR  2
KEV        KEV        EV         EV         NO-DIM     NO-DIM
0.0        16.451        8.13E+01    5.1E+00   2.35E-04   0.24E-04
ENDDATA              3
ENDSUBENT           14
SUBENT        10507005   20040427   20040517
BIB                  1          2
REACTION  1(74-W-186(N,0),,D)
          2(74-W-186(N,EL),,STF)
ENDBIB               2
COMMON               1          3
MOMENTUM L
NO-DIM
0.
ENDCOMMON            3
DATA                 6          1
EN-MIN     EN-MAX     DATA      1DATA-ERR  1DATA      2DATA-ERR  2
KEV        KEV        EV         EV         NO-DIM     NO-DIM
0.0        17.342         9.0E+01    7.0E+00   2.23E-04   0.27E-04
ENDDATA              3
ENDSUBENT           14
SUBENT        10507006   20040427   20040517
BIB                  3          4
REACTION  1(74-W-182(N,0),,EN)
          2(74-W-182(N,EL),,WID/RED,,G)
ANALYSIS   (AREA) Area analysis
HISTORY    (19821105A) REACTION corrected.
ENDBIB               4
COMMON               1          3
MOMENTUM L
NO-DIM
0.
ENDCOMMON            3
DATA                 4        141
DATA      1DATA-ERR  1DATA      2DATA-ERR  2
EV         EV         MILLI-EV   MILLI-EV
    4.16    0.02        0.72      0.02
   21.03    0.06        7.9       1.1
  114.39    0.13       23.        3.
  212.80    0.18        0.17      0.03
  248.01    0.22       57.        4.
  341.58    0.35        0.31      0.05
  376.16    0.40        7.4       1.0
  428.50    0.25       12.1       1.2
  484.16    0.30       20.        2.
  578.24    0.39       11.2       1.0
  655.22    0.46        5.2       0.8
  759.44    0.58        3.5       0.7
  781.70    0.60        0.33      0.09
  862.76    0.34        0.78      0.14
  918.78    0.38       11.4       1.3
  947.26    0.40       65.        7.
 1007.0     0.4        16.1       1.6
 1095.1     0.5        44.        6.
 1161.0     0.6        14.2       0.7
 1274.9     0.6         1.09      0.17
 1287.1     0.7         2.5       0.6
 1325.9     0.7         0.69      0.22
 1407.8     0.7         3.5       0.8
 1502.0     0.8        11.4       0.8
 1514.0     0.8        10.5       1.5
 1582.0     0.9         1.96      0.38
 1645.9     0.9         1.53      0.37
 1772.0     0.5        71.        6.
 1793.1     0.5         5.9       1.0
 1920.9     2.0
 2006.1     0.6        32.        3.
 2061.0     0.7        29.        3.
 2103.9     0.7         6.9       0.6
 2179.9     0.7        12.7       1.1
 2225.9     0.7        17.        2.
 2328.2     0.8        11.7       1.2
 2384.2     0.8        19.        2.
 2411.9     0.8         4.3       0.6
 2530.0     0.9         4.5       0.6
 2575.9     0.9        17.7       2.0
 2607.1     0.9         4.1       0.6
 2790.2     1.0        54.        5.
 2871.2     1.1         4.7       0.8
 2940.9     1.1         5.4       0.7
 3048.0     1.2        26.        3.
 3118.9     1.2         3.0       0.5
 3202.8     1.3         5.1       0.5
 3256.9     1.3        10.5       0.9
 3305.7     1.3        27.        3.
 3343.1     1.3         2.9       0.5
 3413.0     1.4        45.        5.
 3494.3     1.4        29.        3.
 3522.8     1.5         8.6       1.0
 3563.9     1.5         7.2       0.7
 3602.1     1.5        21.        3.
 3785.7     1.6         1.5       0.3
 3846.2     1.7        74.        9.
 3879.1     1.7        31.        4.
 3975.1     1.7        27.        3.
 3995.7     1.7         4.6       0.8
 4062.3     1.8        17.9       2.8
 4211.6     1.9         4.5       0.5
 4266.4     1.9         3.2       0.5
 4312.5     2.0        30.        3.
 4367.4     2.0         1.3       0.3
 4431.3     2.0        44.        4.
 4492.5     2.0         6.6       0.8
 4714.8     2.2        13.8       1.5
 4832.2     2.3        43.        5.
 4846.0     2.3         2.2       0.5
 4911.3     2.4        19.4       2.9
 4961.2     2.4         5.4       0.7
 5138.0     2.5        15.5       2.1
 5199.1     2.6        72.        6.
 5435.2     2.8        85.        8.
 5538.2     2.9         7.7       2.0
 5563.6     2.9         9.4       1.3
 5655.7     3.0       186.       27.
 5883.6     3.1         5.0       1.3
 6018.8     3.2         3.1       1.3
 6188.5     3.4        58.        5.
 6259.1     3.4        33.        4.
 6403.9     3.5        47.        5.
 6514.1     3.6        11.3       1.9
 6535.7     3.6        23.        3.
 6605.1     3.7         4.7       1.0
 6667.9     3.8        59.        6.
 6731.8     3.8         5.7       1.2
 6743.1     3.8         7.7       1.2
 6858.3     3.9        15.1       1.8
 6960.5     4.0        34.        4.
 7012.5     4.0         7.1       1.2
 7101.8     4.1         5.8       1.2
 7155.3     4.1        24.        4.
 7243.1     4.2        12.7       1.8
 7285.5     4.3         4.0       1.2
 7472.1     4.4        45.        4.
 7552.3     4.5        39.        4.
 7586.1     4.5         6.2       1.2
 7693.6     4.7        44.        4.
 7744.6     4.8        14.        2.
 7810.4     4.8        34.        3.
 7834.1     4.8        14.7       2.8
 8012.7     4.9        14.8       2.2
 8192.4     5.1        18.1       2.2
 8394.0     5.3        19.9       2.7
 8506.      5.          6.6       1.6
 8533.      5.          6.6       1.6
 8725.      6.         48.        4.
 8815.      6.         20.        3.
 9005.      6.          9.1       1.6
 9231.      6.         42.        4.
 9453.      6.         37.        5.
 9473.      6.         12.8       3.6
 9823.      7.         25.        3.
 9896.      7.         16.5       2.0
 9944.      7.          6.6       2.0
 9998.      7.         32.        6.
10025.      7.         33.        6.
10140.      7.         16.5       2.0
10260.      7.         37.        4.
10603.      8.         18.2       2.4
10900.      8.          8.5       2.9
11000.      8.         17.5       1.9
11174.      8.         12.3       2.4
11310.      8.         30.        3.
11380.      8.         56.        6.
11560.      8.         24.        3.
11710.      9.         35.        3.
11780.      9.          5.9       1.4
11820.      9.         25.        3.
11890.      9.         29.        3.
11910.      9.         23.        3.
12210.      9.         17.6       2.7
12361.      9.          9.9       2.7
12490.     10.         29.        3.
12540.     10.         26.        3.
12680.     10.         18.        3.
13057.     10.         27.        3.
13180.     10.         44.        6.
13253.     10.         29.        3.
ENDDATA            143
ENDSUBENT          156
SUBENT        10507007   20040427   20040517
BIB                  2          3
REACTION  1(74-W-183(N,0),,EN)
          2(74-W-183(N,EL),,WID/RED,,G)
ANALYSIS   (AREA) Area analysis
ENDBIB               3
COMMON               1          3
MOMENTUM L
NO-DIM
0.
ENDCOMMON            3
DATA                 4         93
DATA      1DATA-ERR  1DATA      2DATA-ERR  2
EV         EV         MILLI-EV   MILLI-EV
   7.63    0.03        0.40      0.11
  27.05    0.03        6.        1.
  40.68    0.03        0.20      0.05
  46.24    0.07       14.1       2.2
  47.85    0.04        3.8       0.4
  65.34    0.03        0.18      0.03
 101.10    0.12        6.5       1.0
 103.90    0.12        0.19      0.03
 138.00    0.09        0.18      0.03
 144.22    0.10        2.0       0.2
 154.40    0.11        8.7       1.2
 157.01    0.11        3.2       0.6
 173.82    0.25        3.0       0.5
 192.09    0.15        2.1       0.4
 203.19    0.16        0.06      0.02
 229.15    0.40        0.03      0.02
 235.06    0.20        0.27      0.04
 240.28    0.20        0.46      0.09
 258.89    0.20        3.2       0.4
 279.61    0.25        6.0       0.6
 288.13    0.26        0.018     0.012
 296.33    0.14        0.99      0.11
 321.82    0.16        3.2       0.5
 336.96    0.17        0.21      0.03
 347.27    0.18        5.3       0.5
 352.83    0.18        0.027     0.016
 360.39    0.19        1.3       0.2
 377.56    0.20        3.6       1.6
 390.86    0.21        1.1       0.2
 417.78    0.23        1.2       0.3
 425.36    0.24        0.73      0.24
 430.70    0.25        1.93      0.72
 459.75    0.27        0.40      0.07
 468.23    0.56        0.092     0.023
 492.74    0.30        0.045     0.022
 495.14    0.30        0.036     0.018
 512.48    0.32        0.053     0.022
 534.61    0.34        0.54      0.15
 550.71    0.35        1.96      0.34
 558.22    0.36        2.1       0.4
 567.73    0.37        0.76      0.21
 571.07    0.37        1.51      0.29
 587.88    0.39        0.83      0.12
 603.00    0.41        1.96      0.41
 608.30    0.41        0.45      0.16
 646.58    0.45        4.8       0.6
 675.91    0.48        1.58      0.31
 690.1     0.5         0.84      0.19
 695.1     0.5         5.7       1.1
 700.6     0.5         0.59      0.13
 752.0     0.6         4.4       0.7
 807.8     0.6         0.70      0.18
 852.1     0.3         0.34      0.10
 862.6     0.4         1.36      0.34
 867.3     0.4         0.51      0.30
 869.4     0.4         3.1       1.4
 893.9     0.4         1.5       0.3
 940.9     0.4         1.3       0.3
1059.1     0.5         0.40      0.15
1062.9     0.5         1.14      0.31
1114.0     0.5         0.63      0.15
1141.0     0.5        10.1       1.2
1151.0     0.5         0.80      0.24
1176.0     0.6         0.79      0.12
1241.0     0.6         7.5       1.0
1313.1     0.7         3.2       0.6
1369.9     0.7         3.5       0.8
1451.1     0.8         0.68      0.13
1541.0     0.8         1.0       0.2
1567.0     0.9         0.76      0.15
1625.9     0.9         2.1       0.2
1662.9     0.9         2.0       0.7
1685.0     0.5         0.56      0.17
1710.1     0.5         4.8       1.5
1738.0     0.5         1.6       0.4
1754.0     0.5         1.1       0.4
1819.9     0.5         2.6       0.6
1836.0     0.5         5.1       0.8
1856.9     0.6         6.2       0.7
1866.0     0.6         3.5       1.2
1870.1     0.6         3.9       1.4
1955.1     0.6         1.9       0.5
1992.9     0.6         3.9       0.8
2144.2     0.7         4.3       0.9
2158.2     0.7         4.7       0.9
2167.1     0.7         4.9       0.9
2219.1     0.7         7.6       1.5
2237.1     0.7         2.1       1.0
2260.1     0.7         1.2       0.5
2280.9     0.8         2.5       0.6
2315.9     0.8         6.9       1.5
2443.8     0.8        13.        2.
2640.2     0.9         4.3       0.8
ENDDATA             95
ENDSUBENT          107
SUBENT        10507008   20040427   20040517
BIB                  3          4
REACTION  1(74-W-184(N,0),,EN)
          2(74-W-184(N,EL),,WID/RED,,G)
ANALYSIS   (AREA) AREA ANALYSIS
HISTORY    (19821105A) REACTION corrected.
ENDBIB               4
COMMON               1          3
MOMENTUM L
NO-DIM
0.
ENDCOMMON            3
DATA                 4        126
DATA      1DATA-ERR  1DATA      2DATA-ERR  2
EV         EV         MILLI-EV   MILLI-EV
  101.69    0.11        0.36      0.05
  168.90    0.13        0.03      0.03
  184.17    0.14       81.        7.
  242.85    0.21        0.13      0.03
  310.66    0.30        4.3       0.3
  422.85    0.24        2.1       0.2
  681.23    0.49       25.        2.
  703.68    0.51        0.24      0.04
  784.09    0.60        0.57      0.11
  799.34    0.62       62.        5.
  957.32    0.40       45.        5.
  998.55    0.43        2.6       0.3
 1086.0     0.5        94.        9.
 1132.0     0.5        10.1       1.5
 1261.0     0.6        37.        3.
 1334.9     0.7         0.42      0.11
 1399.9     0.7        86.        5.
 1423.9     0.7        20.        2.
 1514.0     0.8        37.        4.
 1551.8     0.8         2.2       1.0
 1655.0     0.9         6.4       0.7
 1792.1     0.5        29.        4.
 1920.1     0.6         5.5       0.7
 2045.1     0.6        27.        2.
 2092.1     0.7        99.       10.
 2210.9     0.7         5.9       0.6
 2252.0     0.7        10.5       0.8
 2411.1     0.8        27.        3.
 2459.2     0.8        12.        1.
 2540.0     0.9        13.        2.
 2620.8     0.9        25.        2.
 2836.2     2.0
 2921.9     1.1        39.        4.
 2982.2     1.1        15.        2.
 3133.2     1.2         8.        1.
 3181.8     1.2        18.        3.
 3202.8     1.2        39.        4.
 3232.2     1.3         5.8       0.5
 3457.1     1.4        39.        4.
 3539.3     1.4        22.        3.
 3596.2     1.5         1.4       0.4
 3735.9     1.6        53.        4.
 3807.3     1.6        67.        7.
 3941.0     1.7         4.5       0.8
 4007.9     1.7         6.2       1.6
 4186.5     1.9        40.        4.
 4249.3     1.9        16.3       2.3
 4546.6     2.1         8.8       1.5
 4614.5     2.1         4.9       0.9
 4802.4     2.3        27.        3.
 4927.9     2.4        24.        4.
 5053.4     2.5         6.7       1.0
 5090.4     2.5        39.        4.
 5188.8     2.6        22.        3.
 5807.1     3.0         5.9       1.0
 5883.6     3.1        67.        9.
 6067.0     3.2         5.1       0.8
 6127.3     3.3       146.       32.
 6232.1     3.4        12.2       2.5
 6411.0     3.5         2.8       1.0
 6474.7     3.6         9.3       1.2
 6548.4     3.6         8.4       1.2
 6788.8     3.8        12.        2.
 6913.0     3.9         4.5       1.2
 6965.      4.         11.6       1.8
 7049.      4.         74.        8.
 7122.      4.         18.6       3.6
 7205.      4.          5.1       1.2
 7303.      4.         22.        3.
 7335.      4.          9.8       1.8
 7472.      4.         76.        7.
 7552.      5.         71.        7.
 7777.      5.         13.5       2.8
 8167.      5.         40.        4.
 8310.      5.         16.6       2.7
 8458.      5.         58.        7.
 8549.      5.         55.        5.
 8603.      6.         12.3       2.2
 8741.      6.         11.7       2.1
 8889.      6.         19.9       2.1
 8987.      6.         12.7       2.6
 9046.      6.         81.        7.
 9286.      6.         22.        3.
 9372.      6.         66.        6.
 9665.      7.          6.1       1.5
 9816.      7.         14.7       3.5
 9843.      7.         33.        4.
10050.      7.         50.        5.
10249.      7.        102.        9.
10418.      7.         10.9       2.5
10682.      8.         33.        4.
10739.      8.          8.9       2.4
11070.      8.         86.        9.
11280.      8.         30.        4.
11371.      8.          9.1       2.4
11450.      8.          8.4       2.3
11650.      9.         10.6       1.9
11710.      9.         64.        6.
11819.      9.         50.        6.
11850.      9.         84.        9.
12020.      9.         10.2       3.2
12170.      9.         12.2       2.3
12432.      9.         21.        2.
12658.     10.         13.7       2.2
13001.     10.         37.        4.
13082.     10.          8.4       2.0
13201.     10.        174.       22.
13361.      5.         29.        4.
13390.      5.         32.        4.
13480.      5.         60.        8.
13499.      5.          3.6       1.4
13610.      5.          6.7       1.7
13681.      5.         15.        2.
13831.      6.         31.        4.
14419.      6.         92.       13.
14861.      6.         50.        6.
15071.      6.         11.        2.
15170.      6.         16.        2.
15250.      6.         18.        2.
15351.      7.         15.        2.
15449.      7.         74.       12.
15631.      7.        150.       20.
15971.      7.         87.       16.
16201.      7.         29.        3.
16318.      7.         31.        4.
16451.      7.         15.        3.
ENDDATA            128
ENDSUBENT          141
SUBENT        10507009   20040427   20040517
BIB                  3          4
REACTION  1(74-W-186(N,0),,EN)
          2(74-W-186(N,EL),,WID/RED,,G)
ANALYSIS   (AREA) Area analysis
HISTORY    (19821105A) REACTION corrected.
ENDBIB               4
COMMON               1          3
MOMENTUM L
NO-DIM
0.
ENDCOMMON            3
DATA                 4        102
DATA      1DATA-ERR  1DATA      2DATA-ERR  2
EV         EV         MILLI-EV   MILLI-EV
   18.80    0.06       74.        7.
  170.72    0.12        2.1       0.3
  217.46    0.18       32.        3.
  286.66    0.27        1.9       0.4
  405.66    0.45        4.5       0.4
  509.63    0.32        4.1       0.4
  541.28    0.35       21.        2.
  663.10    0.47       24.        1.
  719.80    0.53       76.        6.
  831.05    0.33        1.1       0.1
  963.02    0.41       33.        3.
 1071.0     0.5        15.7       1.8
 1121.1     0.5        11.5       1.2
 1187.1     0.6        25.        2.
 1418.0     0.7         2.3       0.3
 1500.0     0.8        33.        3.
 1794.9     0.5         0.6       0.2
 1933.1     0.6        17.7       1.8
 2025.0     0.6        12.6       1.4
 2104.9     0.7         3.8       0.8
 2349.1     0.8         5.0       0.6
 2514.8     0.9        15.0       1.5
 2589.8     0.9        20.        2.
 2658.9     0.9        94.        6.
 2779.2     1.0         8.2       1.3
 2875.9     1.1        18.7       1.9
 2976.1     1.1         2.1       0.6
 3038.8     1.1       202.       22.
 3158.0     1.2        43.        4.
 3312.3     1.3        13.6       1.6
 3423.3     1.4        60.        5.
 3540.7     1.4         8.4       1.0
 3713.4     1.5         2.7       0.8
 3768.2     1.6        25.        2.
 3870.8     1.7        52.        5.
 3963.1     1.7        11.1       1.1
 4165.2     1.8        24.        2.
 4221.0     1.9        42.        4.
 4395.1     2.0        29.        3.
 4540.3     2.1        33.        3.
 4804.7     2.3        87.        4.
 4975.6     2.4         6.4       1.7
 5158.3     2.5        38.        3.
 5282.2     2.6         5.7       0.8
 5383.5     2.7        14.5       2.0
 5402.5     2.7         7.4       0.8
 5667.3     2.9        70.        5.
 5777.0     3.0        68.        5.
 6293.1     3.4        17.0       1.9
 6386.4     3.5        22.        3.
 6489.0     3.6        63.        5.
 6697.9     3.8         3.0       0.7
 6754.5     3.8        49.9       4.3
 6948.6     4.0        13.2       1.8
 6968.5     4.0        21.        2.
 7114.1     4.1         6.9       1.1
 7176.1     4.2        16.5       1.8
 7324.0     4.3         8.0       1.2
 7472.1     4.4        64.        6.
 7633.9     4.6        19.9       2.3
 7712.1     4.6        26.9       2.9
 7843.6     4.8        11.3       2.3
 7978.4     4.9        11.8       1.7
 8131.8     5.0         8.7       1.1
 8294.9     5.2        29.        3.
 8436.9     5.2         9.6       2.2
 8625.1     5.5         9.4       1.9
 8669.1     5.5         6.9       1.7
 9176.6     6.0        43.        4.
 9200.8     6.0         2.8       1.0
 9285.9     6.1        88.        9.
 9409.7     6.3        94.        9.
 9542.3     6.4        31.        6.
 9587.1     6.4       279.       31.
 9842.7     6.7        24.        3.
10271.      7.         21.        3.
10349.      7.         82.        9.
10580.      7.         10.3       2.4
10629.      7.         29.        4.
10769.      8.         34.        4.
10850.      8.        106.       14.
11749.      9.         33.        4.
11868.      9.         10.5       3.7
12309.      9.         72.       14.
12408.      9.        100.       18.
12590.     10.         37.        9.
12619.     10.         71.       15.
13201.     10.         27.        4.
13320.      8.         17.8       4.3
13569.      5.         51.        8.
14021.      6.         30.        5.
15199.      6.         66.       10.
15439.      7.         49.       12.
15478.      7.         47.       12.
15651.      7.        152.       24.
15718.      7.         22.        5.
16491.      7.         68.       12.
16630.      7.         75.       12.
16931.      8.         61.        9.
17060.      8.         11.        5.
17299.      8.         45.        8.
17342.      8.          9.5       3.0
ENDDATA            104
ENDSUBENT          117
SUBENT        10507010   20040427   20040517
BIB                  5          5
REACTION   (74-W-0(N,TOT),,SIG,,RAW)
SAMPLE     Sample thickness 11.92 b/atom.
CORRECTION Uncorrected cross section data.
STATUS     Data received from authors.
HISTORY    (20040427C) Data converted from cSISRS/A file.
ENDBIB               5
NOCOMMON             0          0
DATA                 2       8191
EN         DATA
EV         B
 86088.125      2.48
 85915.438      2.56
 85743.313      2.24
 85571.688      2.59
 85400.625      2.83
 85230.000      2.29
 85059.938      2.69
 84890.313      3.28
 84721.250      2.67
 84552.750      3.12
 84384.625      4.03
 84217.125      3.63
 84050.063      3.49
 83883.500      3.48
 83717.438      3.80
 83551.813      3.27
 83386.750      3.83
 83222.125      3.65
 83058.000      3.94
 82894.438      4.18
 82731.313      4.37
 82568.625      3.94
 82406.438      3.09
 82244.750      2.81
 82083.500      3.41
 81922.750      3.49
 81762.500      3.56
 81602.625      3.60
 81443.313      3.98
 81284.438      4.87
 81126.000      5.79
 80968.063      5.58
 80810.625      5.82
 80653.563      4.26
 80496.938      4.02
 80340.875      5.33
 80185.188      5.71
 80030.000      5.53
 79875.250      5.07
 79720.875      4.97
 79567.063      4.74
 79413.625      4.94
 79260.625      5.30
 79108.125      5.56
 78956.000      5.58
 78804.313      5.21
 78653.125      5.24
 78502.313      4.57
 78351.938      4.89
 78202.063      5.47
 78052.563      5.63
 77903.500      5.62
 77754.875      5.90
 77606.625      6.68
 77458.813      6.88
 77311.500      6.10
 77164.500      6.17
 77018.000      7.66
 76871.938      6.79
 76726.188      7.66
 76580.938      7.65
 76436.000      7.21
 76291.563      6.41
 76147.500      6.01
 76003.875      6.47
 75860.625      6.62
 75717.813      6.15
 75575.438      6.00
 75433.313      7.12
 75291.750      7.01
 75150.500      7.00
 75009.625      7.01
 74869.250      7.00
 74729.188      5.82
 74589.500      5.52
 74450.313      6.09
 74311.438      6.15
 74172.938      6.96
 74034.813      6.80
 73897.125      7.13
 73759.750      6.68
 73622.875      5.40
 73486.250      5.78
 73350.063      5.37
 73214.313      5.28
 73078.813      5.26
 72943.813      5.60
 72809.188      6.01
 72674.813      6.72
 72540.938      6.70
 72407.375      6.33
 72274.125      6.41
 72141.313      6.37
 72008.875      6.64
 71876.688      6.40
 71745.000      6.94
 71613.625      8.03
 71482.625      8.01
 71351.938      7.61
 71221.688      5.84
 71091.750      6.54
 70962.188      7.09
 70832.938      7.50
 70704.000      6.98
 70575.500      7.14
 70447.375      7.84
 70319.500      7.97
 70192.063      5.92
 70064.875      5.68
 69938.125      5.87
 69811.688      5.85
 69685.563      6.58
 69559.813      7.14
 69434.375      7.50
 69309.313      7.04
 69184.563      6.66
 69060.188      6.15
 68936.063      7.01
 68812.375      6.82
 68688.938      6.83
 68565.875      6.97
 68443.125      7.52
 68320.688      6.40
 68198.625      6.72
 68076.875      7.40
 67955.438      8.17
 67834.313      8.44
 67713.500      8.14
 67593.125      8.97
 67472.938     10.18
 67353.125      7.36
 67233.625      7.13
 67114.438      7.53
 66995.563      6.19
 66877.063      6.10
 66758.750      7.31
 66640.813      7.72
 66523.250      6.51
 66405.938      6.57
 66288.938      6.46
 66172.250      6.25
 66055.875      6.34
 65939.813      6.34
 65824.000      6.94
 65708.625      5.97
 65593.438      6.60
 65478.598      7.05
 65364.066      6.12
 65249.836      6.46
 65135.871      6.65
 65022.207      8.01
 64908.855      7.57
 64795.801      7.68
 64683.059      7.36
 64570.570      6.42
 64458.391      5.92
 64346.512      5.68
 64234.938      6.02
 64123.617      6.57
 64012.602      5.87
 63901.887      5.58
 63791.430      5.99
 63681.273      6.43
 63571.418      7.43
 63461.813      7.00
 63352.512      8.13
 63243.500      7.77
 63134.754      7.25
 63026.297      7.82
 62918.145      7.48
 62810.242      6.22
 62702.629      6.50
 62595.238      7.12
 62488.180      8.53
 62381.406      7.04
 62274.852      7.44
 62168.629      7.88
 62062.656      7.10
 61956.941      6.84
 61851.508      8.23
 61746.336      7.79
 61641.402      7.32
 61536.809      8.54
 61432.414      8.73
 61328.313      7.98
 61224.500      8.51
 61120.934      7.70
 61017.578      7.14
 60914.543      6.72
 60811.754      6.65
 60709.219      5.70
 60606.965      5.80
 60504.957      7.27
 60403.188      7.57
 60301.711      5.73
 60200.477      5.99
 60099.438      6.54
 59998.730      6.95
 59898.266      7.84
 59798.000      7.90
 59698.047      7.14
 59598.309      7.53
 59498.844      8.63
 59399.625      9.28
 59300.602      8.51
 59201.895      8.83
 59103.395      7.94
 59005.133      7.62
 58907.145      8.85
 58809.434      8.40
 58711.891      8.17
 58614.652      6.80
 58517.613      7.16
 58420.816      6.84
 58324.289      7.92
 58228.000      7.44
 58131.906      7.12
 58036.090      8.09
 57940.508      6.52
 57845.117      6.57
 57750.000      7.26
 57655.113      7.27
 57560.469      7.31
 57466.047      6.22
 57371.867      0.0
 57277.871      0.0
 57184.188      0.0
 57090.695      0.0
 56997.398      0.0
 56904.371      0.0
 56811.570      0.0
 56718.961      0.0
 56626.617      0.0
 56534.469      0.0
 56442.543      0.0
 56350.891      0.0
 56259.422      0.0
 56168.184      0.0
 56077.172      0.0
 55986.348      0.0
 55895.789      5.47
 55805.457      6.29
 55715.273      3.50
 55625.395      3.24
 55535.695      4.83
 55446.184      4.81
 55356.938      4.49
 55267.879      4.32
 55179.043      5.64
 55090.387      5.64
 55001.992      5.31
 54913.789      3.58
 54825.801      4.18
 54738.039      5.45
 54650.461      5.17
 54563.102      4.11
 54475.961      3.28
 54389.039      3.51
 54302.305      5.06
 54215.793      7.05
 54129.453      4.90
 54043.379      5.13
 53957.477      5.94
 53871.766      4.20
 53786.266      3.27
 53700.941      2.79
 53615.879      3.42
 53530.996      3.51
 53446.289      3.57
 53361.801      5.51
 53277.535      6.30
 53193.438      4.22
 53109.555      4.31
 53025.930      4.35
 52942.406      4.25
 52859.137      4.04
 52776.035      4.17
 52693.121      5.53
 52610.410      6.09
 52527.918      6.55
 52445.605      5.10
 52363.461      4.47
 52281.570      5.12
 52199.813      6.03
 52118.270      6.26
 52036.898      7.50
 51955.742      6.95
 51874.762      7.21
 51793.984      7.58
 51713.379      6.79
 51632.953      7.28
 51552.730      8.05
 51472.688      8.63
 51392.848      7.69
 51313.180      7.54
 51233.691      9.41
 51154.398     10.28
 51075.316      7.72
 50996.375      8.58
 50917.637      9.98
 50839.066      8.88
 50760.664      8.91
 50682.473      8.61
 50604.484      8.58
 50526.629      7.36
 50448.977      7.85
 50371.465      7.11
 50294.188      7.78
 50217.078      9.50
 50140.102      9.07
 50063.324      7.47
 49986.754      8.03
 49910.313     10.12
 49834.074      8.20
 49758.004      8.78
 49682.102      7.64
 49606.398      7.57
 49530.859      7.83
 49455.449      7.74
 49380.281      7.62
 49305.234      7.00
 49230.355      8.11
 49155.680     10.99
 49081.164      9.90
 49006.816      6.95
 48932.629      7.58
 48858.602      8.12
 48784.746      8.24
 48711.086      8.96
 48637.582      9.10
 48564.211      9.68
 48491.035     12.13
 48418.020     11.72
 48345.168      6.79
 48272.480      7.01
 48199.980      7.39
 48127.582      8.55
 48055.406      9.57
 47983.359      8.26
 47911.504      6.77
 47839.781      7.14
 47768.211      9.03
 47696.836     10.67
 47625.625     10.00
 47554.527     10.82
 47483.633      9.45
 47412.898      7.20
 47342.281      6.34
 47271.855      5.90
 47201.559      6.99
 47131.414      7.62
 47061.469      8.26
 46991.672      8.51
 46922.004      8.58
 46852.488      9.25
 46783.160      9.80
 46713.961     11.98
 46644.914     11.45
 46576.020     10.69
 46507.281      9.81
 46438.703      9.77
 46370.281      8.33
 46302.008      8.03
 46233.859      6.70
 46165.895      6.30
 46098.051      6.26
 46030.395      7.20
 45962.859      7.70
 45895.441      9.37
 45828.215      9.18
 45761.141      8.01
 45694.215      7.67
 45627.414      7.55
 45560.754      7.73
 45494.258      8.47
 45427.906      8.60
 45361.672      7.46
 45295.629      8.64
 45229.699      9.54
 45163.918      9.26
 45098.289      8.25
 45032.813      7.93
 44967.453      9.69
 44902.242      8.53
 44837.184      7.40
 44772.270      7.94
 44707.477      8.72
 44642.824      9.02
 44578.328      9.12
 44513.977     11.34
 44449.746     13.85
 44385.656     11.33
 44321.719      8.54
 44257.930      8.60
 44194.219     10.65
 44130.691     10.55
 44067.313      9.25
 44004.043      7.57
 43940.926      9.04
 43877.918      7.77
 43815.086      8.47
 43752.371      8.13
 43689.773      9.12
 43627.348      8.84
 43565.035     11.09
 43502.840      8.82
 43440.789      6.70
 43378.883      9.13
 43317.082      9.72
 43255.426      7.46
 43193.922      7.47
 43132.527      7.52
 43071.277      7.49
 43010.168      7.03
 42949.137      7.65
 42888.281      7.71
 42827.566      8.93
 42766.934      9.42
 42706.445      7.47
 42646.098      6.52
 42585.891      7.85
 42525.793      9.05
 42465.809     10.27
 42405.957      8.08
 42346.258      9.20
 42286.660     10.93
 42227.207      8.74
 42167.863      7.62
 42108.652      8.52
 42049.555      9.50
 41990.602      8.77
 41931.723      7.96
 41873.012      7.37
 41814.449      6.39
 41755.953      7.11
 41697.598      7.40
 41639.383      7.15
 41581.273      8.25
 41523.277     10.35
 41465.441     10.54
 41407.691     10.48
 41350.070     10.15
 41292.559      9.83
 41235.188     10.13
 41177.914      8.46
 41120.785      7.95
 41063.730      7.95
 41006.844      9.57
 40950.063      8.09
 40893.383      6.22
 40836.840      6.77
 40780.410      7.89
 40724.078      8.69
 40667.879     10.09
 40611.789      9.90
 40555.836      8.20
 40499.984      7.80
 40444.234      7.30
 40388.625      7.75
 40333.113      6.99
 40277.707      7.37
 40222.438      7.50
 40167.270      7.66
 40112.207      8.12
 40057.270      9.55
 40002.445     11.83
 39947.715     10.93
 39893.121     10.00
 39838.629      8.21
 39784.242      8.32
 39729.992      8.33
 39675.836      9.49
 39621.781     10.09
 39567.859      8.98
 39514.043      7.66
 39460.324      8.41
 39406.711      8.98
 39353.223     10.30
 39299.809     10.36
 39246.555     11.88
 39193.367     12.30
 39140.320     14.06
 39087.367     13.21
 39034.512      9.68
 38981.762      8.39
 38929.141      9.22
 38876.617      9.73
 38824.191     10.35
 38771.867      9.79
 38719.672      9.75
 38667.547     10.26
 38615.551     11.46
 38563.652     13.31
 38511.855     10.30
 38460.180     10.98
 38408.574     11.76
 38357.105     11.78
 38305.758     10.45
 38254.480     10.28
 38203.301     12.19
 38152.246      8.23
 38101.258      5.82
 38050.395      6.21
 37999.672      7.62
 37949.004      7.83
 37898.438      8.53
 37848.000     10.89
 37797.625     11.18
 37747.371      9.11
 37697.223     11.24
 37647.168      8.46
 37597.211      6.52
 37547.348      8.19
 37497.578      8.96
 37447.934      8.40
 37398.387      9.85
 37348.906      8.12
 37299.551      8.70
 37250.289      7.74
 37201.125      6.40
 37152.055      7.06
 37103.082      8.87
 37054.195      9.95
 37005.406     12.36
 36956.711      9.48
 36908.148      8.14
 36859.641      8.09
 36811.262      8.86
 36762.941      7.15
 36714.746      6.73
 36666.613      9.27
 36618.609      9.83
 36570.695      9.03
 36522.844      9.16
 36475.121      8.11
 36427.488      9.09
 36379.941      9.58
 36332.492      7.67
 36285.137      7.78
 36237.848      8.67
 36190.668     10.55
 36143.590     10.29
 36096.605     10.19
 36049.707      9.47
 36002.875     10.06
 35956.164      9.56
 35909.539      6.91
 35863.008      7.21
 35816.543      9.24
 35770.195     10.69
 35723.941      9.99
 35677.742      7.93
 35631.668      8.57
 35585.652      6.97
 35539.734      7.46
 35493.934      9.87
 35448.184      8.90
 35402.531      7.00
 35357.004      8.08
 35311.531      8.16
 35266.145      9.09
 35220.855      8.84
 35175.621      7.36
 35130.512      7.71
 35085.488      7.89
 35040.555     10.12
 34995.676     10.54
 34950.918      8.76
 34906.223     10.05
 34861.617      7.81
 34817.094      5.69
 34772.668      6.24
 34728.320      6.96
 34684.070      7.77
 34639.875      7.37
 34595.797      9.70
 34551.777     10.96
 34507.848      7.74
 34464.027      6.77
 34420.277      5.74
 34376.582      6.57
 34333.000      7.67
 34289.504     11.07
 34246.074     12.95
 34202.727      9.76
 34159.461      7.32
 34116.289      7.57
 34073.199      6.75
 34030.168      8.78
 33987.230      8.74
 33944.367      9.08
 33901.602      7.91
 33858.914      7.93
 33816.320      6.80
 33773.777      7.66
 33731.320      8.32
 33688.957      7.53
 33646.668      8.75
 33604.441      7.63
 33562.332      8.31
 33520.273     10.17
 33478.309      8.43
 33436.422      7.34
 33394.594      7.71
 33352.852     10.29
 33311.191      8.15
 33269.613      7.16
 33228.098      9.45
 33186.691      9.82
 33145.340      7.57
 33104.078      7.24
 33062.871      8.40
 33021.742      9.51
 32980.699      8.99
 32939.746     11.00
 32898.871     10.60
 32858.051     10.42
 32817.324      7.39
 32776.641      8.33
 32736.074      8.63
 32695.559      7.87
 32655.129      7.66
 32614.754      7.07
 32574.461      6.58
 32534.285      7.24
 32494.133      8.80
 32454.059      7.44
 32414.102      6.90
 32374.164      7.78
 32334.344      8.81
 32294.570      7.93
 32254.879      9.22
 32215.250      8.37
 32175.699      7.67
 32136.227      8.66
 32096.844      8.82
 32057.508      9.86
 32018.254     11.96
 31979.059     11.57
 31939.969      9.51
 31900.926      8.73
 31861.945      8.48
 31823.043      7.74
 31784.219      8.63
 31745.453      8.49
 31706.766     10.29
 31668.164     10.35
 31629.609     10.37
 31591.133      9.39
 31552.742     10.50
 31514.406     10.73
 31476.145     13.95
 31437.938     15.39
 31399.840     11.17
 31361.762      8.72
 31323.766     10.30
 31285.879      9.91
 31248.016      8.60
 31210.230      9.44
 31172.531     10.41
 31134.879      9.38
 31097.305      9.14
 31059.809     10.21
 31022.367     10.65
 30984.980      8.44
 30947.699      8.90
 30910.461     10.57
 30873.281     12.66
 30836.180     15.14
 30799.156     11.41
 30762.188      7.26
 30725.293      7.56
 30688.445      9.18
 30651.680      9.78
 30614.965     11.63
 30578.328     13.78
 30541.770      9.60
 30505.266      9.55
 30468.809      8.96
 30432.426      9.15
 30396.125     10.41
 30359.875     13.78
 30323.695     16.64
 30287.574     14.05
 30251.527     10.51
 30215.527     10.22
 30179.613     10.26
 30143.770      7.77
 30107.977     10.11
 30072.230     10.72
 30036.566      9.54
 30000.949      7.63
 29965.438      6.75
 29929.941      7.12
 29894.531      7.64
 29859.160      8.43
 29823.875      8.40
 29788.668      9.53
 29753.504      8.98
 29718.387      8.77
 29683.352     10.09
 29648.383     11.55
 29613.445     12.23
 29578.605     11.26
 29543.816     10.65
 29509.078     11.25
 29474.410     15.28
 29439.793     14.66
 29405.250     13.63
 29370.754      9.71
 29336.340      7.48
 29301.969      8.35
 29267.645     10.33
 29233.395     10.31
 29199.230      7.98
 29165.102      8.75
 29131.023      9.33
 29097.023     13.10
 29063.066     14.30
 29029.195     11.61
 28995.355     11.10
 28961.570     10.61
 28927.863     11.05
 28894.230     10.82
 28860.637     11.36
 28827.098     10.49
 28793.602      9.16
 28760.207      8.93
 28726.832     12.34
 28693.535      9.86
 28660.281      6.81
 28627.102      7.69
 28593.965      9.56
 28560.906      9.64
 28527.895      9.75
 28494.930     12.49
 28462.035     13.82
 28429.188     11.14
 28396.414     10.36
 28363.691     10.65
 28331.008     11.08
 28298.371     12.12
 28265.840     13.35
 28233.324     10.56
 28200.883      9.36
 28168.484      9.29
 28136.129      9.47
 28103.879     10.67
 28071.645      9.79
 28039.461      8.02
 28007.371      6.91
 27975.305      8.01
 27943.305      7.98
 27911.352      9.73
 27879.445     12.34
 27847.609     12.19
 27815.816     10.45
 27784.105     12.30
 27752.434      9.53
 27720.801      7.67
 27689.219      9.94
 27657.703     11.39
 27626.238      9.46
 27594.844      7.13
 27563.496     10.34
 27532.191     11.68
 27500.930      9.18
 27469.738      7.43
 27438.621      8.79
 27407.523      9.72
 27376.492      9.00
 27345.504      9.61
 27314.566      8.92
 27283.691      7.69
 27252.867      8.87
 27222.086      8.78
 27191.371      8.35
 27160.703      8.28
 27130.078      7.40
 27099.527      8.71
 27069.020      9.25
 27038.551      8.32
 27008.129     10.02
 26977.777     11.63
 26947.473     13.00
 26917.207     10.99
 26887.012      9.52
 26856.859      8.84
 26826.754      7.48
 26796.688      9.17
 26766.691      8.13
 26736.742      8.76
 26706.832      9.10
 26676.992     10.20
 26647.168     12.79
 26617.418     12.51
 26587.734     10.33
 26558.066     10.83
 26528.465      8.63
 26498.914      9.69
 26469.402     10.76
 26439.957     11.28
 26410.555      7.61
 26381.195      6.58
 26351.883      6.66
 26322.609      7.69
 26293.398      8.31
 26264.234     11.04
 26235.121     10.62
 26206.066      8.85
 26177.035      8.41
 26148.063     10.12
 26119.137     10.13
 26090.281      9.82
 26061.469     10.56
 26032.668     11.30
 26003.938     11.37
 25975.273     13.59
 25946.629     11.77
 25918.047     10.13
 25889.512      9.83
 25861.012      8.85
 25832.563      7.70
 25804.172      9.54
 25775.801     11.58
 25747.500     13.06
 25719.238      9.50
 25691.039      9.21
 25662.863     10.57
 25634.750     12.13
 25606.676     14.45
 25578.648     16.00
 25550.660     12.29
 25522.734      9.11
 25494.828      8.21
 25466.992      7.80
 25439.191      7.25
 25411.438      6.81
 25383.715      6.84
 25356.063      7.29
 25328.457      8.82
 25300.859      9.00
 25273.359      9.06
 25245.871     10.09
 25218.426     10.23
 25191.047     11.88
 25163.676      9.99
 25136.379      8.63
 25109.113      9.45
 25081.926      9.42
 25054.746     10.83
 25027.609     11.52
 25000.535     14.96
 24973.480     15.73
 24946.484     13.76
 24919.555     12.03
 24892.641      9.87
 24865.770      9.86
 24838.965     11.01
 24812.176     12.05
 24785.445     12.67
 24758.758     14.95
 24732.109     17.40
 24705.504     14.95
 24678.930     11.15
 24652.406      8.38
 24625.945      9.91
 24599.516     10.36
 24573.109      9.78
 24546.762      7.98
 24520.457      9.15
 24494.191      9.37
 24467.961     10.12
 24441.801      8.12
 24415.652      7.66
 24389.570      7.04
 24363.500      8.17
 24337.496     11.01
 24311.523      9.28
 24285.602      8.14
 24259.711      9.06
 24233.859     10.62
 24208.051     13.41
 24182.301      9.47
 24156.570      8.37
 24130.879     10.00
 24105.242     11.90
 24079.656      9.79
 24054.074      7.80
 24028.563      8.97
 24003.086     10.79
 23977.648     13.50
 23952.250     14.00
 23926.910     11.51
 23901.590      9.48
 23876.309      9.32
 23851.082     11.31
 23825.879     12.11
 23800.707      8.34
 23775.605      8.60
 23750.539     11.96
 23725.484     11.14
 23700.492     10.19
 23675.539     11.38
 23650.621     11.13
 23625.746      9.70
 23600.902      7.48
 23576.102      8.01
 23551.340     11.22
 23526.613      9.09
 23501.922      7.14
 23477.270      6.96
 23452.680      7.56
 23428.105      8.45
 23403.570      9.38
 23379.098      9.65
 23354.629     11.48
 23330.230      9.52
 23305.840      9.25
 23281.520      9.87
 23257.203     12.23
 23232.953     13.26
 23208.734     10.43
 23184.535      9.13
 23160.395      9.81
 23136.293     11.60
 23112.199     12.96
 23088.172     10.65
 23064.184      8.97
 23040.203      9.86
 23016.289     11.23
 22992.406     12.64
 22968.559     16.53
 22944.758     17.35
 22920.961     14.53
 22897.227     17.31
 22873.531     16.78
 22849.871     10.98
 22826.246     13.08
 22802.660     12.37
 22779.109      8.47
 22755.574      7.62
 22732.098      9.44
 22708.656     12.58
 22685.250     13.64
 22661.887     17.34
 22638.555     17.58
 22615.234     10.92
 22591.973      7.43
 22568.750      7.39
 22545.563      9.00
 22522.414     11.85
 22499.273     10.74
 22476.195     13.62
 22453.156     15.95
 22430.125     15.81
 22407.156     12.49
 22384.223      8.34
 22361.301      7.09
 22338.434      7.81
 22315.586     10.29
 22292.797     15.07
 22270.020     15.39
 22247.273      9.54
 22224.586      8.53
 22201.918      8.39
 22179.281     10.36
 22156.703     13.22
 22134.137     14.88
 22111.605     11.66
 22089.113     13.56
 22066.656     15.38
 22044.227     10.10
 22021.840      7.99
 21999.492      8.35
 21977.172      8.31
 21954.895      7.26
 21932.641      8.92
 21910.402      9.73
 21888.227     10.37
 21866.086      9.84
 21843.957     12.40
 21821.891     16.27
 21799.828      9.46
 21777.805      7.12
 21755.832      9.50
 21733.883     11.14
 21711.957     11.89
 21690.070      8.68
 21668.219      6.61
 21646.406      6.33
 21624.625      7.45
 21602.875      8.86
 21581.141     10.45
 21559.465     14.80
 21537.793     12.26
 21516.184      7.82
 21494.590      8.04
 21473.027     10.81
 21451.500     10.62
 21430.027     12.55
 21408.570      8.82
 21387.117      7.91
 21365.730      7.93
 21344.371      8.99
 21323.051     11.31
 21301.734     12.89
 21280.480      9.06
 21259.242      8.95
 21238.031      9.92
 21216.859     13.36
 21195.715     12.14
 21174.609     11.01
 21153.535     10.58
 21132.492     14.36
 21111.465     12.89
 21090.500      8.73
 21069.531      8.50
 21048.637      9.75
 21027.738     11.01
 21006.879     12.82
 20986.051     16.71
 20965.242     14.60
 20944.480     11.81
 20923.754     10.09
 20903.039     14.26
 20882.359     17.12
 20861.734     10.99
 20841.125      8.82
 20820.539      9.09
 20799.973      6.95
 20779.461      6.16
 20758.980      6.44
 20738.508      7.34
 20718.074      9.18
 20697.695      8.20
 20677.324      7.34
 20656.965      7.77
 20636.664     10.43
 20616.387     13.46
 20596.133     13.69
 20575.926     15.11
 20555.730     13.05
 20535.570      9.00
 20515.445      9.32
 20495.324      8.95
 20475.262     11.20
 20455.230     11.00
 20435.215      6.91
 20415.227      5.54
 20395.273      6.05
 20375.352      7.33
 20355.438      6.35
 20335.586      6.09
 20315.742      6.76
 20295.930      6.78
 20276.145      7.57
 20256.398      7.42
 20236.688      7.03
 20217.000      8.21
 20197.332      8.98
 20177.691     10.72
 20158.078     13.91
 20138.508      9.95
 20118.965      7.85
 20099.434     10.26
 20079.949     13.14
 20060.480     11.86
 20041.047      7.22
 20021.645      8.68
 20002.270     10.15
 19982.902      6.98
 19963.578      5.70
 19944.281      6.84
 19925.008      8.17
 19905.777     10.47
 19886.574      8.71
 19867.379      9.21
 19848.219      8.74
 19829.090      8.09
 19809.996      7.51
 19790.934      9.46
 19771.871     11.30
 19752.855      9.07
 19733.855      9.39
 19714.902      9.82
 19695.973      7.37
 19677.051      6.47
 19658.160      6.47
 19639.332      7.44
 19620.488      8.21
 19601.695      8.66
 19582.910     10.41
 19564.176     12.56
 19545.461     13.08
 19526.770      8.98
 19508.086     10.44
 19489.465     11.07
 19470.844      9.07
 19452.262     10.60
 19433.703      9.93
 19415.164      8.54
 19396.672      8.65
 19378.188      9.92
 19359.738     12.49
 19341.293     10.26
 19322.902      9.05
 19304.520     10.20
 19286.172      8.60
 19267.859      9.16
 19249.547     10.21
 19231.293     11.41
 19213.047     14.06
 19194.828     15.70
 19176.645     10.86
 19158.469     10.85
 19140.316      9.09
 19122.207      8.20
 19104.121      8.15
 19086.047      8.84
 19068.027      9.12
 19050.012     11.14
 19032.027     11.50
 19014.055     12.47
 18996.137     15.02
 18978.219     11.21
 18960.316      9.23
 18942.465     10.35
 18924.645     12.26
 18906.828     11.53
 18889.027     12.33
 18871.273     16.08
 18853.535     19.24
 18835.844     17.74
 18818.164     17.59
 18800.488     17.46
 18782.871     11.07
 18765.254      8.17
 18747.672      7.42
 18730.094      7.91
 18712.574     10.11
 18695.059     12.54
 18677.582     12.59
 18660.105     12.79
 18642.660     10.28
 18625.270     11.44
 18607.859     14.92
 18590.508     14.44
 18573.160     13.80
 18555.844     14.77
 18538.563     15.40
 18521.277     13.47
 18504.051     12.31
 18486.840     13.81
 18469.625     15.63
 18452.465     19.13
 18435.316     24.60
 18418.195     28.13
 18401.086     24.58
 18384.004     13.62
 18366.973      8.36
 18349.926     11.26
 18332.938     12.29
 18315.949      9.08
 18298.996     10.49
 18282.051     15.03
 18265.148     12.53
 18248.258      8.92
 18231.398      9.06
 18214.551     11.00
 18197.730     15.92
 18180.938     13.30
 18164.172      8.44
 18147.418      9.69
 18130.695     10.90
 18114.004     11.62
 18097.336     12.65
 18080.676     12.72
 18064.047     15.21
 18047.426     12.94
 18030.855     10.30
 18014.270     13.98
 17997.734     19.58
 17981.230     15.96
 17964.738     11.81
 17948.246      9.77
 17931.809      8.69
 17915.379      7.93
 17898.973      8.20
 17882.602      6.92
 17866.234      7.22
 17849.902      6.44
 17833.594      8.80
 17817.297      9.14
 17801.023      8.71
 17784.781      8.18
 17768.547      7.41
 17752.344      7.21
 17736.164      7.03
 17719.996      8.91
 17703.875     12.51
 17687.742     11.92
 17671.664      7.57
 17655.586      7.27
 17639.543      8.88
 17623.504     10.93
 17607.516     10.79
 17591.531      8.40
 17575.555      7.63
 17559.633      8.76
 17543.715      8.63
 17527.805      9.04
 17511.945     11.71
 17496.074     15.88
 17480.246     14.87
 17464.430     10.19
 17448.645      9.28
 17432.879      8.58
 17417.129      9.93
 17401.406      9.88
 17385.703     11.69
 17370.016     14.91
 17354.359     15.58
 17338.727     10.25
 17323.098     10.97
 17307.496     13.77
 17291.934     10.45
 17276.375      8.45
 17260.836      8.62
 17245.332     11.49
 17229.832     13.05
 17214.363     15.14
 17198.918     11.94
 17183.484      7.10
 17168.074      6.09
 17152.680      6.82
 17137.305      7.39
 17121.957      7.95
 17106.645     10.22
 17091.332      9.24
 17076.055     10.45
 17060.781      9.16
 17045.531      9.22
 17030.313      9.85
 17015.102      8.90
 16999.922      7.92
 16984.758      9.96
 16969.609     12.01
 16954.488     16.43
 16939.395     14.70
 16924.305     10.42
 16909.246      9.89
 16894.191     11.66
 16879.195     16.00
 16864.176     16.06
 16849.203     10.84
 16834.238      7.92
 16819.281      7.18
 16804.371     10.73
 16789.477     10.17
 16774.582      7.99
 16759.711      8.21
 16744.871      9.04
 16730.059      9.67
 16715.250     11.17
 16700.477     12.42
 16685.703     14.07
 16670.961     15.88
 16656.242     20.58
 16641.531     22.49
 16626.844     18.15
 16612.168     18.87
 16597.520     19.36
 16582.895     13.82
 16568.281     11.50
 16553.691     13.08
 16539.133     11.56
 16524.578     10.39
 16510.051     14.34
 16495.531     13.35
 16481.031     10.96
 16466.566     13.47
 16452.109     10.50
 16437.668      6.92
 16423.246      7.74
 16408.863      7.09
 16394.473      6.48
 16380.125      6.43
 16365.762      8.09
 16351.453      9.67
 16337.145     13.20
 16322.863     11.37
 16308.590      6.88
 16294.344      6.48
 16280.117      7.39
 16265.906      8.20
 16251.719     10.18
 16237.535     10.37
 16223.383     12.47
 16209.254     12.36
 16195.137      8.66
 16181.020     10.39
 16166.953      9.48
 16152.891      9.92
 16138.836     11.26
 16124.809     13.62
 16110.801     17.05
 16096.809     12.22
 16082.832      9.52
 16068.895      9.11
 16054.957      9.88
 16041.043     11.27
 16027.141     13.51
 16013.262     16.34
 15999.387     19.94
 15985.543     24.26
 15971.719     22.70
 15957.910     12.68
 15944.121      8.63
 15930.340      9.00
 15916.586     10.55
 15902.859     11.98
 15889.133     15.70
 15875.438     20.67
 15861.746     14.48
 15848.082     10.15
 15834.441     12.55
 15820.793     17.51
 15807.188     14.13
 15793.582     12.10
 15780.016     13.06
 15766.445     11.72
 15752.902     11.84
 15739.387     13.86
 15725.879     13.73
 15712.391     13.07
 15698.910     14.81
 15685.465     19.04
 15672.016     24.16
 15658.590     28.39
 15645.180     30.08
 15631.793     19.52
 15618.430     11.46
 15605.070     13.22
 15591.742     10.04
 15578.410      7.05
 15565.113      6.44
 15551.816      7.67
 15538.570      9.76
 15525.309     12.97
 15512.070     12.80
 15498.859     16.61
 15485.652     23.10
 15472.477     28.21
 15459.297     27.07
 15446.152     15.58
 15433.027      6.98
 15419.906      7.47
 15406.816      7.38
 15393.730      4.60
 15380.656      5.25
 15367.617      9.09
 15354.566      8.16
 15341.566      5.95
 15328.563      8.08
 15315.574      7.32
 15302.605      6.24
 15289.664      7.70
 15276.727     11.99
 15263.816     13.88
 15250.910     11.78
 15238.012     11.93
 15225.152     16.09
 15212.309     18.06
 15199.465     14.75
 15186.645     11.60
 15173.828      6.78
 15161.043      5.88
 15148.281      7.31
 15135.523      6.24
 15122.789      7.09
 15110.059      6.62
 15097.359      7.01
 15084.664      9.62
 15071.996      6.04
 15059.328      4.84
 15046.688      4.82
 15034.051      5.64
 15021.445      4.95
 15008.859      5.65
 14996.281      6.26
 14983.703      6.41
 14971.148      5.72
 14958.625      6.26
 14946.109      6.92
 14933.613      6.89
 14921.125      7.36
 14908.660      8.93
 14896.207     10.85
 14883.770     15.92
 14871.344     16.29
 14858.934      8.10
 14846.535      6.46
 14834.160      7.92
 14821.816      6.87
 14809.469      5.45
 14797.129      5.68
 14784.816      5.93
 14772.527      6.16
 14760.242      7.09
 14747.965      6.95
 14735.707     10.02
 14723.477     11.13
 14711.254      7.78
 14699.039      7.88
 14686.863      8.90
 14674.676     10.72
 14662.508     10.50
 14650.363     10.76
 14638.230     10.11
 14626.117     13.05
 14614.012     15.26
 14601.930     20.38
 14589.852     18.68
 14577.801     11.26
 14565.754      9.77
 14553.738      8.85
 14541.719      9.31
 14529.723     11.82
 14517.750      9.41
 14505.766      8.82
 14493.832      9.21
 14481.875      9.26
 14469.965     11.12
 14458.059     14.60
 14446.164     17.92
 14434.281     18.04
 14422.414     10.42
 14410.566      5.88
 14398.742      5.21
 14386.906      5.58
 14375.117      6.89
 14363.324      7.44
 14351.539      6.26
 14339.781      6.05
 14328.027      7.32
 14316.297      6.85
 14304.566      6.13
 14292.871      7.29
 14281.188      9.21
 14269.496      9.05
 14257.848      9.66
 14246.207      9.61
 14234.566      7.76
 14222.949      7.04
 14211.336      7.24
 14199.750      6.65
 14188.168      6.90
 14176.613      7.41
 14165.055      7.42
 14153.527      7.41
 14142.004      7.82
 14130.504      8.09
 14119.008      9.17
 14107.535     11.97
 14096.066     13.26
 14084.621     11.47
 14073.184     10.68
 14061.770     10.98
 14050.359     14.07
 14038.949     16.02
 14027.566     13.40
 14016.211      8.29
 14004.855      8.29
 13993.531      8.31
 13982.203      8.21
 13970.883      8.70
 13959.582     10.65
 13948.309     13.77
 13937.035     13.71
 13925.777      9.01
 13914.531      9.83
 13903.301      9.31
 13892.082      7.97
 13880.879      7.53
 13869.691      7.46
 13858.531      8.58
 13847.352      7.65
 13836.203      8.28
 13825.074      9.06
 13813.945      8.84
 13802.852     10.33
 13791.746     11.02
 13780.672      9.32
 13769.605      8.75
 13758.543      9.65
 13747.504     11.92
 13736.484     11.20
 13725.449     10.19
 13714.465     11.23
 13703.480     14.56
 13692.496     18.53
 13681.543     20.49
 13670.586     15.69
 13659.652     15.88
 13648.730     14.03
 13637.824      9.68
 13626.930     11.64
 13616.039     12.86
 13605.168     12.30
 13594.320     17.13
 13583.477     21.40
 13572.637     12.88
 13561.820      7.91
 13551.016      7.28
 13540.219      7.69
 13529.438      8.28
 13518.680      8.93
 13507.918     10.63
 13497.188     15.38
 13486.461     16.82
 13475.734      9.46
 13465.027      8.01
 13454.352     10.58
 13443.680     10.05
 13433.008      8.47
 13422.359      9.25
 13411.715     12.68
 13401.098     14.26
 13390.480     11.90
 13379.871     12.68
 13369.281     15.46
 13358.715     11.15
 13348.152      9.76
 13337.590     13.63
 13327.055     17.24
 13316.527     11.92
 13306.020      8.57
 13295.512      9.84
 13285.035     11.75
 13274.555     14.57
 13264.082     17.83
 13253.637     15.13
 13243.203     17.13
 13232.766     21.98
 13222.359     26.64
 13211.949     29.51
 13201.559     23.16
 13191.188     16.95
 13180.816      9.52
 13170.473      6.05
 13160.117      6.64
 13149.801      7.23
 13139.492      8.33
 13129.184      7.01
 13118.875      6.65
 13108.594      7.85
 13098.340      9.14
 13088.078      8.34
 13077.832      7.85
 13067.598     11.33
 13057.379     11.37
 13047.172     10.87
 13036.973      9.39
 13026.801     10.41
 13016.629     14.75
 13006.461     14.84
 12996.309      8.66
 12986.172      6.07
 12976.055      6.48
 12965.938      7.31
 12955.840      6.16
 12945.758      7.01
 12935.668      8.86
 12925.605     10.04
 12915.547      8.27
 12905.512      7.52
 12895.477      7.61
 12885.469      9.53
 12875.461      9.83
 12865.461      8.78
 12855.480      9.08
 12845.500     10.95
 12835.547     13.54
 12825.590     12.48
 12815.645     12.05
 12805.719      9.82
 12795.820      8.33
 12785.902      9.51
 12776.023      9.11
 12766.137      9.19
 12756.266      9.85
 12746.414     10.38
 12736.578     11.71
 12726.734     12.51
 12716.898     12.73
 12707.109     13.18
 12697.297     13.26
 12687.508     17.45
 12677.719     18.93
 12667.957     18.60
 12658.203     14.78
 12648.469     14.51
 12638.734     18.12
 12629.004     21.26
 12619.297     12.55
 12609.590     13.20
 12599.910     18.82
 12590.238     15.74
 12580.578      9.68
 12570.926      7.99
 12561.281      9.18
 12551.648     11.96
 12542.027      8.18
 12532.410      7.45
 12522.813      8.72
 12513.234      9.22
 12503.645     13.71
 12494.074     12.10
 12484.531      9.05
 12474.988      8.96
 12465.445     10.14
 12455.930     11.16
 12446.414     12.13
 12436.926     15.97
 12427.434     14.68
 12417.945     16.00
 12408.484     22.80
 12399.023     20.61
 12389.582     10.87
 12380.148      8.35
 12370.715     11.03
 12361.309     10.61
 12351.902      9.51
 12342.516     12.26
 12333.137     18.69
 12323.758     22.85
 12314.398     15.16
 12305.047      9.54
 12295.703      9.38
 12286.371      9.24
 12277.066     10.67
 12267.766      8.59
 12258.469      7.59
 12249.168      7.58
 12239.895      9.62
 12230.645     12.42
 12221.375     11.73
 12212.133      9.05
 12202.910      7.34
 12193.688      7.87
 12184.465      9.72
 12175.270     11.72
 12166.078      8.95
 12156.891      7.76
 12147.723      6.22
 12138.555      6.24
 12129.414      5.79
 12120.273      5.99
 12111.133      6.37
 12102.023      6.92
 12092.910      7.52
 12083.816      8.17
 12074.730      7.49
 12065.648      7.78
 12056.590      7.57
 12047.531      9.35
 12038.473     11.74
 12029.438     11.48
 12020.406     10.25
 12011.395     12.68
 12002.391     10.27
 11993.391      8.55
 11984.406      8.07
 11975.426      8.68
 11966.469      9.02
 11957.512      9.37
 11948.566      9.77
 11939.629     10.84
 11930.703     14.15
 11921.781     13.54
 11912.879     13.53
 11903.980     14.93
 11895.098     19.83
 11886.227     21.71
 11877.352     19.98
 11868.500     21.76
 11859.652     23.24
 11850.809     14.47
 11841.988     13.13
 11833.172     17.15
 11824.367     21.33
 11815.574     15.79
 11806.785      9.21
 11798.008     10.57
 11789.242     11.51
 11780.473     10.67
 11771.727     11.78
 11762.992     15.99
 11754.246     13.18
 11745.531     11.54
 11736.836     14.67
 11728.129     21.21
 11719.438     24.94
 11710.762     14.62
 11702.082      8.53
 11693.441      5.59
 11684.781      4.63
 11676.137      5.35
 11667.504      7.32
 11658.883     11.81
 11650.277      9.69
 11641.664      6.05
 11633.078      5.93
 11624.492      6.83
 11615.914      8.70
 11607.348      8.23
 11598.789      6.97
 11590.234      8.51
 11581.703      9.72
 11573.172     14.76
 11564.660     10.82
 11556.152      7.31
 11547.648      7.53
 11539.164      7.23
 11530.680      6.57
 11522.203      7.89
 11513.746      9.26
 11505.289      8.94
 11496.855      7.30
 11488.410      9.10
 11479.984     10.34
 11471.574     11.99
 11463.172     12.57
 11454.770      8.94
 11446.391      7.98
 11438.008     10.32
 11429.633      9.88
 11421.281      9.63
 11412.926     11.73
 11404.582     14.02
 11396.254     18.90
 11387.926     22.81
 11379.609     14.66
 11371.301      8.56
 11363.004      6.87
 11354.723      6.94
 11346.434      7.59
 11338.180      9.91
 11329.910     12.48
 11321.656     17.20
 11313.414     14.20
 11305.191     11.64
 11296.965     15.65
 11288.742     15.32
 11280.547     14.18
 11272.348     11.38
 11264.152     10.00
 11255.984      7.16
 11247.809      5.90
 11239.645      5.89
 11231.496      6.84
 11223.348      7.25
 11215.207      7.11
 11207.086      8.63
 11198.969     11.64
 11190.848     15.07
 11182.754     12.63
 11174.660      8.56
 11166.586      7.91
 11158.520      7.27
 11150.453      7.92
 11142.387      8.44
 11134.340      9.07
 11126.301     10.47
 11118.285      9.57
 11110.242      9.39
 11102.246     10.76
 11094.234     13.04
 11086.242     16.93
 11078.250     22.30
 11070.281     19.68
 11062.316     13.14
 11054.352     10.95
 11046.387     10.30
 11038.445     12.91
 11030.508     14.83
 11022.586      9.63
 11014.668      9.83
 11006.758     13.57
 10998.863     12.22
 10990.973     10.26
 10983.086     10.70
 10975.219      8.12
 10967.336      6.48
 10959.488      7.14
 10951.633      8.29
 10943.793     10.41
 10935.949     11.75
 10928.137     10.32
 10920.324      9.09
 10912.508     11.00
 10904.715     12.11
 10896.930     10.55
 10889.145     10.28
 10881.355     11.99
 10873.590     14.09
 10865.832     17.64
 10858.086     23.82
 10850.348     23.38
 10842.617     12.30
 10834.898      7.80
 10827.168      5.96
 10819.469      6.46
 10811.766      5.95
 10804.074      6.41
 10796.391      6.85
 10788.723      8.24
 10781.035     11.18
 10773.395     14.75
 10765.738     11.85
 10758.094     11.59
 10750.457     10.81
 10742.828      8.09
 10735.215      7.95
 10727.598      7.47
 10720.012      8.29
 10712.402      8.28
 10704.813      9.73
 10697.246     14.06
 10689.664     16.03
 10682.105     10.62
 10674.563      8.08
 10667.004      7.86
 10659.469      8.91
 10651.949      9.83
 10644.418     13.38
 10636.902     16.89
 10629.398     10.58
 10621.906      6.81
 10614.422      6.77
 10606.934      8.18
 10599.449      8.83
 10591.984      9.72
 10584.527     11.37
 10577.082      7.81
 10569.645      6.33
 10562.207      5.67
 10554.773      7.20
 10547.359      8.68
 10539.949      8.34
 10532.535      8.66
 10525.148     11.52
 10517.758     11.85
 10510.375      8.84
 10503.004      8.16
 10495.641      7.98
 10488.285      8.46
 10480.945      8.85
 10473.590      9.67
 10466.246      8.83
 10458.934     11.17
 10451.617     11.33
 10444.305     11.14
 10436.996     12.62
 10429.707     12.97
 10422.414     11.72
 10415.133     10.52
 10407.867     10.14
 10400.602     10.56
 10393.340     11.65
 10386.094     11.53
 10378.855     14.38
 10371.621     17.03
 10364.383     22.31
 10357.168     24.18
 10349.957     17.43
 10342.746     12.73
 10335.555     11.98
 10328.363     13.48
 10321.191     13.06
 10314.008     11.08
 10306.844     11.07
 10299.680     12.71
 10292.535     14.50
 10285.391     19.28
 10278.254     24.01
 10271.117     28.82
 10264.000     27.60
 10256.883     30.77
 10249.766     21.67
 10242.680     11.98
 10235.582      7.20
 10228.492      6.98
 10221.426      9.15
 10214.355      8.75
 10207.289      7.26
 10200.227      7.91
 10193.184      6.99
 10186.137      7.28
 10179.102      7.69
 10172.082      7.20
 10165.063      7.37
 10158.047      9.88
 10151.047     13.23
 10144.035     11.05
 10137.059      8.86
 10130.066     10.92
 10123.102      8.89
 10116.129      8.00
 10109.164      8.60
 10102.215      8.81
 10095.250     10.03
 10088.324     11.65
 10081.387     11.77
 10074.461     11.45
 10067.543     13.94
 10060.625     19.19
 10053.727     20.80
 10046.832     18.01
 10039.934     17.68
 10033.063     20.33
 10026.184     17.11
 10019.316     13.38
 10012.445     17.35
 10005.594     21.00
  9998.750     16.76
  9991.902     11.84
  9985.078      8.05
  9978.238      6.99
  9971.430      7.03
  9964.613      7.95
  9957.809     11.98
  9951.008     11.53
  9944.215      8.91
  9937.434      9.18
  9930.656      8.90
  9923.883      8.71
  9917.113      9.89
  9910.359     13.55
  9903.605     16.09
  9896.859     12.78
  9890.133     12.77
  9883.406     11.96
  9876.680     10.29
  9869.953     10.96
  9863.246     12.59
  9856.547     17.76
  9849.848     21.96
  9843.160     14.69
  9836.484     11.66
  9829.805     16.91
  9823.133     16.65
  9816.473     12.48
  9809.820     10.24
  9803.164      9.16
  9796.531      8.68
  9789.902      8.14
  9783.270      9.47
  9776.645      8.31
  9770.035      8.55
  9763.426      8.68
  9756.820      9.58
  9750.238     10.48
  9743.648     11.46
  9737.070     14.67
  9730.488     11.32
  9723.926     10.78
  9717.371     12.29
  9710.809     13.63
  9704.250     12.91
  9697.715     11.60
  9691.180     12.60
  9684.668     14.25
  9678.137     17.56
  9671.621     18.68
  9665.113     15.69
  9658.621     15.59
  9652.113     16.44
  9645.625     18.31
  9639.145     19.62
  9632.672     21.77
  9626.211     23.23
  9619.742     26.20
  9613.285     30.53
  9606.844     32.64
  9600.398     34.66
  9593.957     37.31
  9587.523     36.89
  9581.105     35.33
  9574.688     23.46
  9568.273     17.08
  9561.875     15.36
  9555.469     21.21
  9549.094     26.10
  9542.699     17.90
  9536.316     13.27
  9529.945      9.54
  9523.578      8.70
  9517.230      9.34
  9510.879      9.42
  9504.520      9.54
  9498.191      9.19
  9491.848     10.86
  9485.523     15.59
  9479.207     15.08
  9472.883     12.79
  9466.582     15.69
  9460.285     21.85
  9453.988     18.87
  9447.691     15.10
  9441.410     12.29
  9435.133     12.61
  9428.867     17.46
  9422.590     24.00
  9416.340     27.15
  9410.086     23.36
  9403.840     19.20
  9397.605     16.03
  9391.363     17.94
  9385.133     22.47
  9378.926     25.80
  9372.699     15.46
  9366.492      6.87
  9360.293      5.41
  9354.090      5.70
  9347.906      7.35
  9341.727      8.93
  9335.547      8.64
  9329.367      8.47
  9323.207      9.80
  9317.047     11.25
  9310.895     14.87
  9304.742     19.52
  9298.602     23.40
  9292.473     26.20
  9286.340     19.02
  9280.219     11.00
  9274.109      9.35
  9267.984     10.19
  9261.887      8.35
  9255.781      8.28
  9249.691     11.23
  9243.605     14.65
  9237.523     19.25
  9231.453     15.75
  9225.387      7.69
  9219.324      5.83
  9213.262      8.88
  9207.203     10.19
  9201.160      9.36
  9195.117     12.00
  9189.094     16.56
  9183.059     18.11
  9177.043     12.41
  9171.027      7.98
  9165.023      8.79
  9159.016      9.54
  9153.020      7.79
  9147.027      8.49
  9141.051      6.32
  9135.063      5.83
  9129.086      6.42
  9123.121      6.91
  9117.164      6.41
  9111.199      6.85
  9105.250      7.36
  9099.301      7.62
  9093.375      8.42
  9087.430      9.44
  9081.500     10.00
  9075.582     13.14
  9069.676     14.84
  9063.754     17.65
  9057.848     22.69
  9051.949     24.96
  9046.070     18.01
  9040.172     10.45
  9034.293      8.54
  9028.410      7.74
  9022.555      8.09
  9016.676     10.82
  9010.824     11.32
  9004.965      7.44
  8999.125      9.95
  8993.293     13.77
  8987.441      9.98
  8981.625      4.57
  8975.793      4.22
  8969.969      4.23
  8964.160      4.98
  8958.348      5.88
  8952.559      6.97
  8946.754      6.35
  8940.965      6.47
  8935.180      7.03
  8929.410      5.55
  8923.629      5.47
  8917.859      6.51
  8912.094      8.11
  8906.352      8.53
  8900.590     11.84
  8894.848     14.95
  8889.105     10.00
  8883.371      7.16
  8877.648      5.77
  8871.926      6.68
  8866.211      8.88
  8860.488      8.03
  8854.773      7.77
  8849.078     10.38
  8843.387     10.03
  8837.691      8.25
  8832.016     10.23
  8826.336     12.81
  8820.664     14.78
  8814.996      9.79
  8809.328      7.36
  8803.676      6.89
  8798.020      7.34
  8792.375      7.37
  8786.727      6.79
  8781.094      6.29
  8775.469      7.11
  8769.844      7.60
  8764.215      7.92
  8758.609      9.67
  8753.000     14.06
  8747.398     15.75
  8741.793     14.38
  8736.207     20.02
  8730.609     18.83
  8725.023      9.94
  8719.461      6.99
  8713.883      5.99
  8708.324      6.02
  8702.766      5.53
  8697.207      5.30
  8691.652      6.09
  8686.105      7.05
  8680.570      7.75
  8675.039     10.69
  8669.500      8.99
  8663.984      7.56
  8658.469      7.79
  8652.957      9.99
  8647.441      8.54
  8641.945      8.65
  8636.457     12.08
  8630.961     13.40
  8625.469     10.63
  8619.980     10.88
  8614.512     12.29
  8609.043     14.06
  8603.574     11.29
  8598.105      9.08
  8592.656      8.82
  8587.207     11.11
  8581.766     11.19
  8576.320     11.78
  8570.891     13.86
  8565.461     17.82
  8560.043     23.18
  8554.621     23.69
  8549.199     15.03
  8543.793     11.59
  8538.391      8.78
  8532.992      6.79
  8527.605      6.24
  8522.211      6.31
  8516.832      7.48
  8511.449      9.96
  8506.070     10.54
  8500.711      8.89
  8495.352      9.74
  8489.992     11.38
  8484.641     12.68
  8479.285     13.71
  8473.949     15.92
  8468.609     18.79
  8463.277     23.73
  8457.945     18.31
  8452.625     11.05
  8447.313      7.66
  8442.004      8.23
  8436.691      6.54
  8431.379      6.02
  8426.090      6.75
  8420.797      7.87
  8415.504     10.23
  8410.223     11.25
  8404.949     14.40
  8399.680     14.84
  8394.410      9.51
  8389.145      6.76
  8383.895      6.09
  8378.633      6.10
  8373.383      7.79
  8368.137      8.34
  8362.910      7.12
  8357.672      8.61
  8352.441      9.89
  8347.219      7.92
  8341.996      7.42
  8336.793      7.63
  8331.586      9.10
  8326.383     10.16
  8321.188     12.85
  8315.984     16.20
  8310.805     14.65
  8305.609     15.79
  8300.426     20.33
  8295.266     17.27
  8290.090      9.36
  8284.930      6.69
  8279.770      6.04
  8274.613      6.75
  8269.457      5.72
  8264.316      6.68
  8259.164      6.49
  8254.031      6.21
  8248.910      6.74
  8243.777      7.77
  8238.660      6.88
  8233.547      7.46
  8228.434      7.10
  8223.320      8.11
  8218.215      8.49
  8213.121      9.59
  8208.031     12.05
  8202.938     15.81
  8197.863     16.24
  8192.777     13.07
  8187.707     12.69
  8182.633     15.70
  8177.566     21.77
  8172.516     22.23
  8167.449     13.49
  8162.398      7.82
  8157.352      6.75
  8152.320      7.56
  8147.277      9.68
  8142.254     11.82
  8137.223     14.56
  8132.195      8.91
  8127.180      6.18
  8122.168      6.36
  8117.164      7.59
  8112.160      6.84
  8107.156      7.40
  8102.152      7.71
  8097.168      6.24
  8092.184      6.21
  8087.199      6.03
  8082.223      6.09
  8077.262      6.91
  8072.285      6.84
  8067.320      7.41
  8062.359      7.82
  8057.414      6.75
  8052.461      7.97
  8047.516      8.24
  8042.582      8.80
  8037.645     10.87
  8032.711     13.25
  8027.789     13.20
  8022.867     11.98
  8017.949     15.58
  8013.035     13.66
  8008.121      9.79
  8003.227      7.75
  7998.324      7.83
  7993.430      9.64
  7988.535     12.66
  7983.660     16.59
  7978.766     15.88
  7973.891     13.08
  7969.020      9.16
  7964.164      6.99
  7959.297      6.48
  7954.438      6.91
  7949.590      7.72
  7944.734      8.50
  7939.883     12.18
  7935.051     12.86
  7930.203      9.85
  7925.371      8.98
  7920.543     10.36
  7915.730     13.03
  7910.902     11.93
  7906.090      9.04
  7901.277      8.72
  7896.473      8.67
  7891.668      8.56
  7886.875      8.45
  7882.090      8.96
  7877.297     10.24
  7872.512     10.97
  7867.727     10.42
  7862.961      9.95
  7858.191     10.41
  7853.426     13.03
  7848.660     16.99
  7843.895     17.41
  7839.152     14.52
  7834.402     11.18
  7829.645     12.66
  7824.914     14.20
  7820.176     21.48
  7815.445     22.82
  7810.707     15.35
  7805.984     11.05
  7801.281     11.58
  7796.555     10.72
  7791.852     11.14
  7787.137     16.12
  7782.434     16.65
  7777.750     10.27
  7773.047      7.98
  7768.363      8.27
  7763.668      8.99
  7758.984     10.51
  7754.309     13.64
  7749.648     16.18
  7744.973     10.96
  7740.309      8.74
  7735.645      8.47
  7730.992      9.85
  7726.348     11.07
  7721.695     14.94
  7717.051     19.30
  7712.418     19.13
  7707.781     15.87
  7703.141     16.91
  7698.527     23.39
  7693.906     19.81
  7689.289     12.51
  7684.668      8.78
  7680.063      7.75
  7675.461      7.55
  7670.848      7.40
  7666.254      7.54
  7661.660      8.15
  7657.078      9.39
  7652.484     10.93
  7647.910     12.64
  7643.340     18.05
  7638.766     21.05
  7634.191     14.04
  7629.633      9.31
  7625.066      9.88
  7620.512     11.51
  7615.961     13.12
  7611.406     11.78
  7606.867     10.84
  7602.336     11.74
  7597.789     15.17
  7593.258     17.12
  7588.738     13.82
  7584.211     14.85
  7579.695     15.50
  7575.168     15.89
  7570.656     18.32
  7566.152     22.06
  7561.652     26.11
  7557.148     30.69
  7552.656     27.74
  7548.164     14.93
  7543.680      8.09
  7539.191      5.95
  7534.719      5.81
  7530.250      6.18
  7525.777      8.32
  7521.305     10.88
  7516.844      9.69
  7512.379      9.55
  7507.930     10.71
  7503.477     12.28
  7499.027     14.57
  7494.586     17.29
  7490.141     21.79
  7485.711     25.82
  7481.281     29.57
  7476.852     32.88
  7472.430     30.15
  7468.004     18.02
  7463.598      8.14
  7459.172      4.19
  7454.762      3.05
  7450.359      2.63
  7445.957      3.05
  7441.570      4.74
  7437.180      4.48
  7432.777      3.29
  7428.398      3.55
  7424.027      6.53
  7419.648      7.80
  7415.266      5.73
  7410.895      4.50
  7406.535      3.63
  7402.168      4.03
  7397.820      4.38
  7393.457      5.16
  7389.117      5.06
  7384.770      5.13
  7380.426      5.80
  7376.086      6.56
  7371.746      6.00
  7367.418      5.39
  7363.098      5.99
  7358.770      6.65
  7354.449      6.65
  7350.129      7.77
  7345.828      9.18
  7341.508     13.60
  7337.211     14.56
  7332.902     15.98
  7328.602     18.30
  7324.324     13.78
  7320.023     12.53
  7315.738     13.28
  7311.457     18.03
  7307.180     18.29
  7302.914     11.23
  7298.641      7.75
  7294.375      9.14
  7290.117     13.98
  7285.855      9.83
  7281.598      5.90
  7277.340      5.77
  7273.094      6.57
  7268.855      5.88
  7264.617      6.35
  7260.379      8.12
  7256.141     10.46
  7251.914     13.68
  7247.684     15.49
  7243.461     10.25
  7239.242      7.44
  7235.023      6.79
  7230.820      7.15
  7226.609      6.60
  7222.402      7.37
  7218.207      7.87
  7214.008      8.92
  7209.813     11.85
  7205.637      9.78
  7201.438      7.95
  7197.262      8.79
  7193.082      9.29
  7188.906      9.57
  7184.742     12.45
  7180.566     16.63
  7176.410     15.92
  7172.254     12.45
  7168.102     14.64
  7163.949     18.22
  7159.801     22.94
  7155.652     13.75
  7151.512      9.08
  7147.375      7.64
  7143.238      9.03
  7139.109      9.69
  7134.980     12.89
  7130.855     17.39
  7126.734     21.29
  7122.617     17.25
  7118.504     14.78
  7114.395     10.49
  7110.289     10.90
  7106.188     16.65
  7102.090     16.09
  7097.992     10.21
  7093.898      8.03
  7089.813      7.86
  7085.727      8.00
  7081.645      9.55
  7077.566     10.70
  7073.492     13.71
  7069.422     15.45
  7065.355     15.86
  7061.293     19.23
  7057.230     23.08
  7053.176     29.53
  7049.121     27.95
  7045.070     18.63
  7041.027     11.83
  7036.980      8.63
  7032.941      7.01
  7028.906      7.50
  7024.875      8.79
  7020.848     12.73
  7016.820     11.66
  7012.797      7.19
  7008.781      7.16
  7004.766      7.74
  7000.754      8.22
  6996.746      7.99
  6992.738      8.39
  6988.738      9.25
  6984.742     10.26
  6980.746     11.66
  6976.754     15.60
  6972.770     22.93
  6968.781     24.24
  6964.805     27.54
  6960.824     21.10
  6956.852     14.53
  6952.883     17.03
  6948.914     13.75
  6944.949      7.64
  6940.988      7.99
  6937.031      7.29
  6933.078      6.95
  6929.129      8.18
  6925.184      8.00
  6921.238      7.68
  6917.301     10.90
  6913.363     11.06
  6909.430      6.79
  6905.500      5.85
  6901.570      6.21
  6897.648      7.14
  6893.730      9.03
  6889.813      8.03
  6885.898      8.36
  6881.988      8.88
  6878.082     10.67
  6874.180      9.36
  6870.277      9.72
  6866.383     12.60
  6862.488     18.06
  6858.598     11.98
  6854.711      7.40
  6850.828      6.31
  6846.949      6.24
  6843.070      7.36
  6839.199      7.16
  6835.328      6.89
  6831.461      6.90
  6827.598      7.44
  6823.738      8.88
  6819.879     11.68
  6816.023     13.55
  6812.176     11.80
  6808.328      9.15
  6804.484     10.28
  6800.645     11.86
  6796.805     16.24
  6792.973     18.43
  6789.141     11.52
  6785.313     10.32
  6781.488     11.91
  6777.668     11.71
  6773.848     12.85
  6770.031     14.61
  6766.219     18.72
  6762.414     24.00
  6758.609     24.18
  6754.805     17.41
  6751.008     15.11
  6747.211     15.00
  6743.418      8.92
  6739.629      8.85
  6735.844     13.08
  6732.059     12.87
  6728.281      9.56
  6724.504      7.01
  6720.730      8.27
  6716.961      7.52
  6713.191      7.05
  6709.430      7.40
  6705.668      9.28
  6701.910     10.70
  6698.156      9.96
  6694.406      9.69
  6690.656     12.71
  6686.914     14.50
  6683.172     17.90
  6679.434     21.50
  6675.695     26.47
  6671.965     27.48
  6668.234     19.31
  6664.508     10.56
  6660.785      7.60
  6657.066      7.56
  6653.348      5.79
  6649.637      5.74
  6645.926      7.07
  6642.219      8.19
  6638.516      6.47
  6634.813      5.92
  6631.113      6.18
  6627.422      6.40
  6623.727      6.29
  6620.039      6.46
  6616.355      7.84
  6612.672     10.14
  6608.992     11.04
  6605.316      7.69
  6601.641      6.95
  6597.969      7.08
  6594.305      7.63
  6590.637      7.49
  6586.977      7.47
  6583.320      8.99
  6579.664      7.90
  6576.012      9.14
  6572.363      9.45
  6568.719      9.96
  6565.074      9.82
  6561.434     10.89
  6557.797     12.46
  6554.164     16.36
  6550.535     18.21
  6546.902     18.64
  6543.281     23.76
  6539.660     21.88
  6536.039     13.34
  6532.422      9.49
  6528.809      9.27
  6525.199     10.48
  6521.594     13.42
  6517.988     18.44
  6514.391     15.14
  6510.793     13.78
  6507.195     15.24
  6503.605     16.67
  6500.016     21.04
  6496.430     26.05
  6492.848     31.84
  6489.266     27.87
  6485.688     21.09
  6482.117     19.17
  6478.543     20.69
  6474.977     13.15
  6471.410      9.18
  6467.848      8.02
  6464.289      7.17
  6460.730      6.66
  6457.180      7.51
  6453.629      8.67
  6450.082     10.79
  6446.535     11.11
  6442.992      9.25
  6439.453      7.76
  6435.918      8.69
  6432.387      8.15
  6428.855      8.39
  6425.328      9.28
  6421.805     11.38
  6418.281     14.57
  6414.762     18.21
  6411.246     24.61
  6407.734     28.65
  6404.223     22.12
  6400.719     16.28
  6397.215     15.12
  6393.711     19.85
  6390.215     21.08
  6386.719     11.32
  6383.227      7.26
  6379.738      5.76
  6376.250      5.59
  6372.766      5.32
  6369.285      5.54
  6365.805      5.47
  6362.332      5.62
  6358.859      6.33
  6355.387      6.67
  6351.922      7.34
  6348.457      6.76
  6344.996      8.63
  6341.535      9.10
  6338.082     10.82
  6334.629     11.17
  6331.180     11.13
  6327.730     10.84
  6324.289     10.24
  6320.844      8.76
  6317.406      8.03
  6313.969      9.09
  6310.535      9.81
  6307.109     10.50
  6303.680     12.35
  6300.254     16.88
  6296.832     22.98
  6293.414     20.33
  6289.996     14.57
  6286.582     13.70
  6283.172     13.58
  6279.766     10.95
  6276.359     10.40
  6272.957     12.54
  6269.559     15.89
  6266.160     21.21
  6262.766     24.28
  6259.375     14.05
  6255.984     11.82
  6252.598      9.86
  6249.215      9.18
  6245.836      9.05
  6242.457     10.47
  6239.082     13.12
  6235.711     18.48
  6232.340     16.44
  6228.973      9.80
  6225.609      8.93
  6222.250      9.58
  6218.891     11.35
  6215.535     10.69
  6212.180     11.20
  6208.832     11.31
  6205.484     13.23
  6202.137     15.89
  6198.797     21.05
  6195.457     27.27
  6192.117     27.95
  6188.785     26.56
  6185.453     19.36
  6182.125     14.67
  6178.797     11.11
  6175.473      9.97
  6172.152     10.42
  6168.836     10.66
  6165.520     11.21
  6162.207     12.16
  6158.898     13.09
  6155.590     13.72
  6152.285     14.38
  6148.984     15.87
  6145.684     17.64
  6142.387     20.53
  6139.094     24.02
  6135.801     29.02
  6132.512     33.11
  6129.227     35.08
  6125.941     38.49
  6122.660     36.05
  6119.383     33.32
  6116.105     30.58
  6112.836     26.79
  6109.563     19.55
  6106.297     16.11
  6103.031     11.26
  6099.766      9.31
  6096.508      8.83
  6093.250      6.27
  6089.996      5.50
  6086.742      5.46
  6083.492      5.33
  6080.246      6.57
  6077.004      8.34
  6073.762      8.90
  6070.520     11.96
  6067.285     10.17
  6064.051      7.81
  6060.820      7.98
  6057.590     12.30
  6054.367     14.65
  6051.141      9.60
  6047.922      6.37
  6044.703      6.59
  6041.484      5.78
  6038.273      7.67
  6035.063      8.41
  6031.852      7.55
  6028.648      7.17
  6025.445     10.06
  6022.242     10.45
  6019.047      7.83
  6015.852      7.32
  6012.656      7.53
  6009.469      7.57
  6006.277      6.97
  6003.094      8.63
  5999.910      6.30
  5996.730      7.31
  5993.555      6.78
  5990.379      6.67
  5987.207      6.69
  5984.035      7.74
  5980.867      8.11
  5977.703      8.08
  5974.539      7.91
  5971.379      8.00
  5968.223     10.84
  5965.066     13.78
  5961.914     10.62
  5958.766      9.47
  5955.617      8.42
  5952.473      8.15
  5949.328      8.90
  5946.188      9.56
  5943.051      7.81
  5939.918      8.86
  5936.781      9.60
  5933.652     10.04
  5930.527      9.68
  5927.402     10.85
  5924.277     11.47
  5921.156     12.91
  5918.039     14.53
  5914.922     18.72
  5911.813     16.19
  5908.699     12.01
  5905.594     11.86
  5902.488     10.98
  5899.383     12.99
  5896.281     20.23
  5893.184     23.10
  5890.090     30.41
  5886.996     32.24
  5883.906     31.10
  5880.816     19.70
  5877.730     13.93
  5874.648     10.23
  5871.566      8.41
  5868.488      8.12
  5865.410      7.81
  5862.336      8.96
  5859.266     10.38
  5856.195      9.45
  5853.129      8.32
  5850.066      9.15
  5847.004      8.01
  5843.945      9.46
  5840.887     11.94
  5837.832     10.92
  5834.781      9.42
  5831.730     10.47
  5828.684      9.94
  5825.637      9.42
  5822.594     11.69
  5819.555     11.33
  5816.516     11.38
  5813.480     12.66
  5810.449     17.96
  5807.414     19.81
  5804.387     15.87
  5801.363     14.95
  5798.340     15.40
  5795.316     18.45
  5792.297     20.05
  5789.281     24.23
  5786.266     29.70
  5783.254     30.45
  5780.246     34.86
  5777.238     26.16
  5774.234     16.01
  5771.230     10.96
  5768.230      8.90
  5765.234      8.14
  5762.238      7.34
  5759.242      7.54
  5756.254      8.72
  5753.266     11.15
  5750.277     10.81
  5747.293      9.68
  5744.313     11.39
  5741.332     12.99
  5738.355     10.99
  5735.383      9.73
  5732.410     11.03
  5729.441     12.48
  5726.473     11.10
  5723.508     10.35
  5720.543     12.03
  5717.582     14.24
  5714.625     13.17
  5711.668     11.77
  5708.715     12.73
  5705.762     13.92
  5702.813     16.20
  5699.867     15.97
  5696.922     17.76
  5693.980     21.05
  5691.039     21.30
  5688.102     22.90
  5685.164     25.80
  5682.230     28.58
  5679.301     30.15
  5676.371     33.48
  5673.445     35.71
  5670.523     41.48
  5667.598     44.41
  5664.680     39.72
  5661.762     41.45
  5658.848     42.62
  5655.934     42.75
  5653.023     38.05
  5650.113     36.17
  5647.207     23.37
  5644.305     14.21
  5641.402     10.15
  5638.504      7.91
  5635.605      5.36
  5632.711      4.17
  5629.816      4.67
  5626.926      4.17
  5624.039      4.40
  5621.152      5.61
  5618.270      8.46
  5615.387     10.45
  5612.508      6.71
  5609.629      6.15
  5606.754      6.92
  5603.883     11.69
  5601.012     12.39
  5598.145      7.74
  5595.277      5.67
  5592.414      4.66
  5589.551      4.09
  5586.691      4.59
  5583.832      5.18
  5580.977      7.29
  5578.125      8.42
  5575.273      8.81
  5572.426     10.00
  5569.578     14.54
  5566.734     19.54
  5563.895     12.87
  5561.051      6.41
  5558.215      5.35
  5555.379      4.34
  5552.547      4.88
  5549.715      4.78
  5546.887      6.04
  5544.059      8.33
  5541.234     12.27
  5538.410     10.10
  5535.590      8.07
  5532.773      6.43
  5529.957      5.55
  5527.141      5.17
  5524.328      6.03
  5521.520      9.14
  5518.711     11.15
  5515.906     11.76
  5513.102      9.51
  5510.301      7.32
  5507.504      6.45
  5504.707      5.57
  5501.910      6.11
  5499.117      5.32
  5496.328      6.13
  5493.539      6.50
  5490.754      5.50
  5487.969      6.32
  5485.188      6.19
  5482.406      7.00
  5479.629      6.96
  5476.852      7.52
  5474.078      8.73
  5471.309      7.97
  5468.539      9.22
  5465.770      9.52
  5463.008      9.32
  5460.242     11.10
  5457.484     13.14
  5454.723     16.48
  5451.965     17.60
  5449.211     17.32
  5446.457     21.90
  5443.707     24.66
  5440.961     29.33
  5438.211     30.03
  5435.469     31.46
  5432.727     32.11
  5429.984     28.20
  5427.246     16.60
  5424.512     11.88
  5421.777      8.89
  5419.047      8.31
  5416.316      7.59
  5413.590      7.61
  5410.863      8.59
  5408.141     12.81
  5405.418     14.13
  5402.699     12.12
  5399.980     10.55
  5397.266     10.35
  5394.551     10.28
  5391.840     11.04
  5389.133     16.77
  5386.426     20.51
  5383.719     12.29
  5381.016      8.43
  5378.313      8.84
  5375.617      7.30
  5372.918      5.10
  5370.223      4.00
  5367.531      4.56
  5364.840      4.57
  5362.152      5.73
  5359.461      5.78
  5356.777      6.74
  5354.094      5.35
  5351.414      4.98
  5348.734      5.05
  5346.059      5.67
  5343.383      7.15
  5340.711      8.46
  5338.039      6.93
  5335.371      6.38
  5332.703      5.44
  5330.039      6.19
  5327.375      6.20
  5324.715      5.59
  5322.059      5.45
  5319.398      5.40
  5316.746      6.50
  5314.090      6.25
  5311.441      6.25
  5308.793      7.11
  5306.145      5.99
  5303.500      7.36
  5300.859      6.79
  5298.215      7.62
  5295.578      7.78
  5292.941      9.01
  5290.305     10.69
  5287.672     16.15
  5285.039     15.43
  5282.410     12.99
  5279.785     11.98
  5277.160      8.95
  5274.535      7.41
  5271.914      7.12
  5269.293      6.94
  5266.676      7.15
  5264.063      6.78
  5261.449      6.95
  5258.836      7.34
  5256.227      7.75
  5253.617      7.74
  5251.012      8.44
  5248.410      9.56
  5245.809     10.98
  5243.207     11.04
  5240.609      9.52
  5238.012      9.76
  5235.418     10.00
  5232.828     10.23
  5230.238     10.53
  5227.648     10.40
  5225.063     11.72
  5222.477     11.49
  5219.895     13.47
  5217.313     15.26
  5214.734     16.82
  5212.156     18.59
  5209.582     20.87
  5207.008     26.65
  5204.438     29.18
  5201.867     30.08
  5199.301     35.33
  5196.734     31.07
  5194.172     33.24
  5191.609     34.92
  5189.051     23.13
  5186.492     13.68
  5183.938      9.38
  5181.383      8.21
  5178.832      8.23
  5176.277      9.05
  5173.730     10.55
  5171.184     11.92
  5168.641     15.94
  5166.098     20.56
  5163.555     26.34
  5161.016     28.27
  5158.480     22.35
  5155.945     13.68
  5153.410      8.18
  5150.879      7.89
  5148.348      7.75
  5145.820     10.86
  5143.297     16.92
  5140.770     21.93
  5138.250     17.33
  5135.730      9.68
  5133.211      6.76
  5130.691      7.20
  5128.180      6.14
  5125.664      6.55
  5123.152      6.51
  5120.645      7.32
  5118.137      6.63
  5115.633      7.59
  5113.129      9.14
  5110.625     11.45
  5108.125     11.89
  5105.629     12.10
  5103.129     11.69
  5100.637     14.10
  5098.145     15.43
  5095.652     21.56
  5093.164     26.63
  5090.676     25.99
  5088.191     15.18
  5085.707      8.68
  5083.223      6.07
  5080.742      6.67
  5078.266      9.66
  5075.789      7.10
  5073.316      5.10
  5070.844      4.73
  5068.371      4.92
  5065.902      5.45
  5063.434      5.46
  5060.969      7.45
  5058.504     12.42
  5056.043     14.84
  5053.582      9.38
  5051.125      6.43
  5048.668      5.73
  5046.215      5.10
  5043.762      5.58
  5041.309      5.70
  5038.859      5.46
  5036.410      5.22
  5033.965      5.79
  5031.520      5.95
  5029.078      5.82
  5026.641      5.36
  5024.199      5.78
  5021.762      6.39
  5019.328      6.20
  5016.895      5.33
  5014.461      5.59
  5012.031      5.87
  5009.605      6.45
  5007.176      6.36
  5004.754      6.68
  5002.328      7.73
  4999.910      6.89
  4997.488      7.60
  4995.070      7.41
  4992.656      7.20
  4990.242      7.87
  4987.828      8.73
  4985.418     10.80
  4983.012     14.74
  4980.602     17.29
  4978.195     16.21
  4975.793      9.72
  4973.391      8.41
  4970.992      8.69
  4968.594      8.53
  4966.195     11.55
  4963.801     17.38
  4961.410     19.01
  4959.016     11.87
  4956.629      9.35
  4954.238      8.43
  4951.852      8.84
  4949.469      8.77
  4947.086      9.33
  4944.703      9.57
  4942.324     10.64
  4939.945     12.43
  4937.570     15.49
  4935.199     19.33
  4932.824     25.22
  4930.453     27.81
  4928.086     21.33
  4925.715     13.23
  4923.352     10.93
  4920.988     12.27
  4918.625     17.62
  4916.266     23.10
  4913.906     19.83
  4911.547     12.08
  4909.191      9.84
  4906.840     11.24
  4904.488     10.05
  4902.137      7.94
  4899.789      6.81
  4897.441      8.37
  4895.094     11.20
  4892.750     13.72
  4890.410     14.81
  4888.070     11.34
  4885.730      9.68
  4883.395      8.80
  4881.059      8.78
  4878.723      7.92
  4876.395      7.74
  4874.063      7.81
  4871.734      7.76
  4869.406      7.80
  4867.082      8.26
  4864.758      9.18
  4862.438     10.16
  4860.117     10.13
  4857.797     10.95
  4855.480     12.70
  4853.164     13.04
  4850.852     16.43
  4848.539     20.65
  4846.230     18.65
  4843.918     16.25
  4841.613     18.25
  4839.309     23.03
  4837.004     27.45
  4834.703     29.47
  4832.402     30.96
  4830.102     27.60
  4827.805     22.05
  4825.508     19.42
  4823.215     18.05
  4820.922     19.23
  4818.633     21.82
  4816.344     25.99
  4814.059     31.31
  4811.770     33.96
  4809.484     33.90
  4807.203     38.43
  4804.922     34.79
  4802.645     31.50
  4800.367     18.93
  4798.090     10.21
  4795.816      6.70
  4793.543      4.65
  4791.270      3.01
  4789.004      2.94
  4786.734      2.94
  4784.469      3.21
  4782.203      4.06
  4779.941      4.49
  4777.680      3.80
  4775.418      3.72
  4773.160      2.87
  4770.902      2.50
  4768.648      3.70
  4766.395      4.06
  4764.145      3.74
  4761.895      4.12
  4759.645      3.54
  4757.398      4.42
  4755.152      4.04
  4752.906      5.12
  4750.664      5.96
  4748.426      7.22
  4746.184      7.41
  4743.949      9.74
  4741.711      9.02
  4739.477      7.15
  4737.246      5.54
  4735.012      5.37
  4732.781      5.34
  4730.555      6.46
  4728.328      6.31
  4726.102      6.05
  4723.879      7.50
  4721.660      9.33
  4719.438     14.52
  4717.219     17.90
  4715.004     13.62
  4712.785      8.24
  4710.574      6.35
  4708.359      5.10
  4706.148      4.70
  4703.941      5.72
  4701.730      4.70
  4699.527      5.23
  4697.320      5.63
  4695.117      5.33
  4692.918      5.96
  4690.719      6.31
  4688.520      9.91
  4686.320      9.06
  4684.125      6.30
  4681.934      6.22
  4679.738      6.75
  4677.551      5.98
  4675.359      5.54
  4673.172      5.38
  4670.984      6.08
  4668.801      8.07
  4666.617      7.29
  4664.438      5.85
  4662.254      5.51
  4660.078      6.32
  4657.902      5.78
  4655.727      5.83
  4653.551      7.55
  4651.379     10.14
  4649.207     10.83
  4647.039      8.38
  4644.871      7.10
  4642.703      6.43
  4640.539      6.51
  4638.375      6.21
  4636.215      6.70
  4634.055      6.54
  4631.895      7.27
  4629.738      7.41
  4627.582      8.20
  4625.430      8.31
  4623.273      8.59
  4621.125     11.01
  4618.977     14.93
  4616.828     16.78
  4614.680     12.35
  4612.535     11.84
  4610.391     14.51
  4608.250     15.00
  4606.105     11.27
  4603.969     10.44
  4601.832      9.36
  4599.695      8.77
  4597.559      8.98
  4595.426      8.11
  4593.293      7.34
  4591.164      7.36
  4589.035      8.05
  4586.906      8.02
  4584.781      7.63
  4582.656      7.65
  4580.535      8.23
  4578.414      7.07
  4576.293      7.82
  4574.176      7.46
  4572.059      8.25
  4569.941      8.86
  4567.828      8.44
  4565.715      8.62
  4563.605      9.16
  4561.492      9.50
  4559.387     10.74
  4557.277     11.64
  4555.172     12.42
  4553.070     16.80
  4550.969     21.59
  4548.867     25.42
  4546.766     26.35
  4544.668     31.50
  4542.570     30.77
  4540.477     22.12
  4538.383     11.78
  4536.289      7.27
  4534.199      5.54
  4532.109      6.08
  4530.023      5.31
  4527.938      4.58
  4525.852      4.84
  4523.766      5.71
  4521.684      5.96
  4519.605      6.37
  4517.527      6.10
  4515.445      6.73
  4513.371      6.68
  4511.297      6.77
  4509.223      6.15
  4507.148      7.45
  4505.078      7.81
  4503.012     10.35
  4500.941     14.93
  4498.875     16.08
  4496.813     17.83
  4494.746     16.92
  4492.684     11.09
  4490.625      7.50
  4488.566      7.03
  4486.508      7.57
  4484.449      7.40
  4482.395      6.96
  4480.340      7.48
  4478.289      7.48
  4476.238      7.50
  4474.188      7.98
  4472.141      8.36
  4470.094      8.90
  4468.051      9.38
  4466.004     10.44
  4463.965      9.71
  4461.930     12.13
  4459.887     14.73
  4457.848     13.44
  4455.809     15.17
  4453.773     12.16
  4451.738     12.33
  4449.711     13.22
  4447.680     16.03
  4445.648     14.93
  4443.617     16.51
  4441.590     18.10
  4439.563     18.95
  4437.547     23.68
  4435.520     26.58
  4433.500     29.61
  4431.477     30.17
  4429.457     20.24
  4427.438     13.35
  4425.430     10.61
  4423.414     10.02
  4421.398      8.44
  4419.387      8.06
  4417.371      8.71
  4415.363      8.50
  4413.359      7.93
  4411.355      9.71
  4409.348      9.20
  4407.344     10.44
  4405.340     11.77
  4403.336     15.70
  4401.344     20.61
  4399.344     25.64
  4397.344     29.45
  4395.348     21.98
  4393.352     12.39
  4391.359      8.12
  4389.375      6.40
  4387.383      6.44
  4385.395      6.19
  4383.402      5.17
  4381.418      5.73
  4379.430      5.81
  4377.453      7.24
  4375.473      8.38
  4373.488      8.31
  4371.508      8.99
  4369.527     11.69
  4367.551     11.76
  4365.582     11.92
  4363.605     10.69
  4361.633      8.91
  4359.660      8.35
  4357.688      7.56
  4355.719      7.66
  4353.758      7.98
  4351.793      7.94
  4349.824      8.69
  4347.859      9.15
  4345.898      8.28
  4343.938     10.00
  4341.984     13.11
  4340.023     17.23
  4338.066     17.36
  4336.109     13.03
  4334.152     10.45
  4332.199     12.79
  4330.254     16.06
  4328.305     20.18
  4326.355     16.84
  4324.406     14.25
  4322.457     13.94
  4320.512     16.63
  4318.574     20.43
  4316.633     25.16
  4314.688     26.24
  4312.750     20.89
  4310.809     13.24
  4308.871      9.71
  4306.941      8.67
  4305.008     10.76
  4303.070     12.61
  4301.137     11.80
  4299.207     10.24
  4297.277      9.73
  4295.355      8.60
  4293.426      7.77
  4291.500      8.81
  4289.574      7.74
  4287.652      7.02
  4285.730      8.02
  4283.816      8.37
  4281.895      8.84
  4279.977      8.14
  4278.059      9.37
  4276.145      9.28
  4274.227     10.03
  4272.324     11.35
  4270.410     14.77
  4268.500     18.27
  4266.590     16.22
  4264.680     15.40
  4262.773     14.12
  4260.875     13.46
  4258.973     13.52
  4257.066     14.54
  4255.164     17.87
  4253.266     24.09
  4251.363     26.90
  4249.473     22.42
  4247.578     15.19
  4245.684     10.34
  4243.789     10.16
  4241.895     10.55
  4240.004     11.19
  4238.121     11.90
  4236.230     13.07
  4234.344     18.98
  4232.453     18.87
  4230.570     20.41
  4228.684     21.60
  4226.809     26.34
  4224.926     29.33
  4223.047     35.71
  4221.168     31.35
  4219.289     22.45
  4217.414     18.16
  4215.547     22.17
  4213.672     20.15
  4211.797     14.23
  4209.926     11.82
  4208.055     15.04
  4206.184     14.93
  4204.324     12.20
  4202.457     11.83
  4200.594     11.28
  4198.730     13.37
  4196.867     13.29
  4195.004     16.89
  4193.148     20.20
  4191.289     24.32
  4189.434     30.67
  4187.574     31.80
  4185.719     30.61
  4183.863     18.74
  4182.020     12.01
  4180.168      9.48
  4178.316      8.24
  4176.469      8.59
  4174.617      9.89
  4172.773     11.58
  4170.934     17.02
  4169.090     22.65
  4167.246     26.66
  4165.402     16.77
  4163.563      8.55
  4161.723      5.89
  4159.891      4.81
  4158.055      5.30
  4156.219      5.32
  4154.383      5.01
  4152.551      4.94
  4150.715      4.98
  4148.895      5.43
  4147.063      5.78
  4145.234      6.28
  4143.406      8.33
  4141.578      9.86
  4139.754      8.45
  4137.938      6.89
  4136.117      6.75
  4134.293      7.19
  4132.473      9.35
  4130.656      8.90
  4128.836      7.61
  4127.027      6.99
  4125.211      6.28
  4123.398      7.22
  4121.582      7.24
  4119.773      7.28
  4117.961      8.16
  4116.160      7.77
  4114.352      7.25
  4112.543      6.71
  4110.738      6.30
  4108.934      7.15
  4107.129      6.76
  4105.332      6.86
  4103.531      6.86
  4101.730      7.08
  4099.934      7.08
  4098.133      7.88
  4096.340      8.37
  4094.552     10.66
  4092.757     13.76
  4090.965     13.96
  4089.173     10.62
  4087.382      8.70
  4085.593      7.96
  4083.812      8.59
  4082.024      8.17
  4080.238      8.53
  4078.454      9.19
  4076.670      9.71
  4074.888     10.39
  4073.113     10.84
  4071.333     12.57
  4069.554     15.61
  4067.776     20.55
  4066.000     25.44
  4064.224     23.93
  4062.450     21.34
  4060.684     20.51
  4058.912     13.34
  4057.141      9.39
  4055.371      8.04
  4053.603      8.09
  4051.835      7.38
  4050.076      7.33
  4048.311      6.76
  4046.548      7.31
  4044.785      8.16
  4043.023      8.14
  4041.262      8.17
  4039.510      9.02
  4037.752      8.53
  4035.995      9.36
  4034.239      9.72
  4032.484      9.02
  4030.730      8.91
  4028.986      8.60
  4027.234      8.30
  4025.484      9.01
  4023.735      8.48
  4021.987      8.19
  4020.240      8.94
  4018.502      8.94
  4016.758      9.48
  4015.014     10.20
  4013.271     12.41
  4011.531     16.37
  4009.791     20.39
  4008.059     17.48
  4006.321     11.14
  4004.585     10.44
  4002.849     11.46
  4001.115     12.16
  3999.382     15.50
  3997.657     19.27
  3995.926     16.08
  3994.197     12.10
  3992.468     12.57
  3990.740     13.06
  3989.013     13.81
  3987.295     12.31
  3985.572     12.77
  3983.848     13.69
  3982.126     16.35
  3980.405     20.32
  3978.685     24.43
  3976.974     31.02
  3975.256     29.51
  3973.540     23.37
  3971.824     16.18
  3970.111     16.27
  3968.397     20.18
  3966.693     25.02
  3964.982     23.71
  3963.272     13.82
  3961.563      9.94
  3959.856     12.84
  3958.149     15.24
  3956.451     11.94
  3954.747      8.95
  3953.043      7.93
  3951.341      8.22
  3949.641      8.23
  3947.940      8.89
  3946.249      9.18
  3944.551     11.25
  3942.855     15.80
  3941.159     17.29
  3939.465     13.77
  3937.771     10.26
  3936.086      9.80
  3934.395     10.24
  3932.705      9.34
  3931.016      9.07
  3929.328     10.30
  3927.642     10.89
  3925.963     11.19
  3924.278     14.28
  3922.595     18.61
  3920.913     20.19
  3919.231     17.20
  3917.551     13.23
  3915.879     12.54
  3914.201     11.58
  3912.524     11.88
  3910.848     12.26
  3909.173     11.99
  3907.499     12.75
  3905.833     13.13
  3904.161     13.68
  3902.491     13.69
  3900.822     15.22
  3899.153     19.19
  3897.486     22.01
  3895.826     21.51
  3894.161     20.07
  3892.497     19.33
  3890.833     20.20
  3889.172     23.41
  3887.511     26.03
  3885.858     28.18
  3884.199     32.60
  3882.541     33.11
  3880.884     38.49
  3879.229     33.98
  3877.574     31.46
  3875.927     32.44
  3874.275     36.07
  3872.623     42.88
  3870.973     37.31
  3869.324     33.80
  3867.675     24.06
  3866.035     17.62
  3864.388     16.11
  3862.743     15.75
  3861.099     16.96
  3859.456     18.48
  3857.814     21.60
  3856.180     24.19
  3854.541     29.00
  3852.902     31.08
  3851.263     38.07
  3849.627     38.86
  3847.991     42.58
  3846.363     45.71
  3844.730     43.60
  3843.097     34.64
  3841.466     29.68
  3839.835     23.98
  3838.206     18.68
  3836.584     16.32
  3834.956     15.99
  3833.330     14.87
  3831.705     13.80
  3830.081     14.60
  3828.458     14.64
  3826.842     15.93
  3825.221     15.45
  3823.601     17.95
  3821.981     19.55
  3820.363     21.09
  3818.746     23.56
  3817.136     27.77
  3815.522     29.89
  3813.907     34.53
  3812.295     37.65
  3810.683     39.14
  3809.072     38.86
  3807.469     43.01
  3805.859     34.99
  3804.252     24.96
  3802.645     14.88
  3801.039     10.70
  3799.434      8.25
  3797.837      8.89
  3796.234      9.78
  3794.632     13.80
  3793.031     12.94
  3791.432     10.72
  3789.833     11.64
  3788.242     13.42
  3786.645     10.68
  3785.049      7.94
  3783.455      8.45
  3781.861     11.84
  3780.268     12.61
  3778.683     11.79
  3777.093     11.99
  3775.503     13.21
  3773.914     18.23
  3772.326     23.48
  3770.740     29.31
  3769.160     27.60
  3767.576     18.50
  3765.992     11.34
  3764.409      8.37
  3762.828      6.93
  3761.247      7.28
  3759.674      6.69
  3758.095      7.80
  3756.517      9.43
  3754.941     10.39
  3753.365     10.00
  3751.790     10.17
  3750.223     11.01
  3748.650     12.65
  3747.078     14.93
  3745.508     18.43
  3743.938     23.88
  3742.369     25.76
  3740.808     29.94
  3739.241     32.35
  3737.675     34.57
  3736.110     31.92
  3734.546     24.56
  3732.984     15.34
  3731.428     10.15
  3729.867      7.76
  3728.307      6.13
  3726.748      4.86
  3725.190      4.01
  3723.633      4.23
  3722.083      4.80
  3720.528      4.80
  3718.974      6.17
  3717.421      6.32
  3715.869      7.46
  3714.317     12.02
  3712.773     13.68
  3711.225      9.42
  3709.676      5.11
  3708.129      3.82
  3706.582      4.55
  3705.037      4.48
  3703.499      4.11
  3701.955      4.93
  3700.413      4.33
  3698.871      4.49
  3697.331      4.76
  3695.791      4.89
  3694.259      4.53
  3692.721      5.25
  3691.185      5.17
  3689.649      4.71
  3688.114      5.52
  3686.580      5.54
  3685.053      6.66
  3683.521      8.21
  3681.990      6.85
  3680.460      5.61
  3678.932      5.81
  3677.403      5.31
  3675.882      5.55
  3674.356      4.83
  3672.830      4.89
  3671.306      5.41
  3669.783      5.05
  3668.260      5.00
  3666.745      5.35
  3665.225      4.80
  3663.706      5.23
  3662.187      5.68
  3660.668      5.86
  3659.152      5.21
  3657.643      5.95
  3656.127      5.51
  3654.614      5.63
  3653.101      6.26
  3651.588      6.54
  3650.077      6.67
  3648.567      5.68
  3647.064      6.68
  3645.556      6.11
  3644.048      6.45
  3642.542      6.99
  3641.036      6.76
  3639.532      6.11
  3638.034      6.84
  3636.531      7.22
  3635.030      8.58
  3633.529      8.55
  3632.029      8.64
  3630.530      7.61
  3629.038      7.17
  3627.541      7.80
  3626.045      7.94
  3624.550      7.79
  3623.055      7.80
  3621.562      8.92
  3620.076      8.04
  3618.584      8.90
  3617.093      9.00
  3615.603      8.59
  3614.114      8.98
  3612.626     10.39
  3611.146     10.68
  3609.659     12.23
  3608.174     15.11
  3606.690     18.48
  3605.207     25.75
  3603.724     24.64
  3602.249     20.75
  3600.768     15.16
  3599.289     16.54
  3597.810     18.90
  3596.332     16.83
  3594.854      9.91
  3593.385      7.96
  3591.910      7.50
  3590.436      7.12
  3588.962      7.11
  3587.490      7.39
  3586.019      6.59
  3584.553      6.97
  3583.084      7.27
  3581.615      8.72
  3580.147      8.15
  3578.680      9.08
  3577.214      9.92
  3575.755     10.09
  3574.291      8.96
  3572.827      9.00
  3571.365     10.47
  3569.903     11.48
  3568.442     11.61
  3566.989     14.38
  3565.530     18.75
  3564.072     22.16
  3562.615     17.21
  3561.158     11.91
  3559.703     10.00
  3558.254      9.96
  3556.801     10.79
  3555.348     10.76
  3553.896     10.26
  3552.445     11.08
  3550.995     12.37
  3549.552     13.58
  3548.104     16.79
  3546.657     18.73
  3545.210     23.35
  3543.764     27.48
  3542.320     32.33
  3540.882     30.53
  3539.439     27.46
  3537.997     17.84
  3536.556     11.59
  3535.115      9.20
  3533.676      8.30
  3532.243      9.10
  3530.806      9.89
  3529.369     11.41
  3527.933     16.23
  3526.498     20.90
  3525.064     23.77
  3523.637     15.69
  3522.205     10.93
  3520.772      8.22
  3519.342      7.67
  3517.912      7.43
  3516.483      7.63
  3515.061      9.64
  3513.634     12.27
  3512.208     12.81
  3510.782     10.73
  3509.357     10.17
  3507.933     10.10
  3506.517     10.45
  3505.094     10.52
  3503.674     12.15
  3502.253     11.83
  3500.834     13.62
  3499.416     17.15
  3498.004     19.83
  3496.587     26.19
  3495.171     28.24
  3493.756     32.77
  3492.342     28.15
  3490.928     17.80
  3489.521     13.12
  3488.110     10.74
  3486.699      9.83
  3485.289      9.26
  3483.880      8.68
  3482.471      8.41
  3481.070      9.12
  3479.664      8.74
  3478.258      9.86
  3476.853     10.60
  3475.449     12.03
  3474.046     12.71
  3472.649     11.88
  3471.248     11.74
  3469.847     12.91
  3468.448     14.82
  3467.049     15.48
  3465.651     16.91
  3464.259     18.42
  3462.863     24.35
  3461.468     27.33
  3460.073     32.24
  3458.679     33.22
  3457.286     35.66
  3455.899     29.07
  3454.508     21.11
  3453.118     16.14
  3451.728     12.81
  3450.339     11.81
  3448.951     10.62
  3447.570     10.96
  3446.184     11.11
  3444.798     12.72
  3443.414     12.63
  3442.030     12.88
  3440.647     13.47
  3439.271     14.01
  3437.889     14.62
  3436.509     14.83
  3435.129     17.09
  3433.750     20.76
  3432.372     21.67
  3431.001     25.28
  3429.625     27.35
  3428.249     30.80
  3426.874     34.29
  3425.501     38.19
  3424.127     37.31
  3422.761     37.76
  3421.390     39.99
  3420.020     35.36
  3418.650     41.45
  3417.281     44.16
  3415.913     44.02
  3414.552     49.82
  3413.184     33.58
  3411.819     21.51
  3410.454     13.74
  3409.090      9.77
  3407.727      7.57
  3406.370      5.75
  3405.009      5.16
  3403.648      4.84
  3402.288      4.64
  3400.930      5.71
  3399.571      7.17
  3398.219      7.86
  3396.862      6.42
  3395.506      5.11
  3394.152      4.38
  3392.798      4.28
  3391.444      4.75
  3390.097      4.69
  3388.745      4.96
  3387.394      4.91
  3386.044      5.46
  3384.695      6.60
  3383.346      8.75
  3382.004     11.02
  3380.657      9.74
  3379.311      7.85
  3377.965      9.51
  3376.621     14.06
  3375.278     17.47
  3373.940     21.51
  3372.598     15.79
  3371.257      9.79
  3369.916      6.74
  3368.576      6.16
  3367.237      6.73
  3365.905      6.48
  3364.567      6.08
  3363.231      6.07
  3361.895      5.63
  3360.560      6.18
  3359.226      6.09
  3357.898      6.43
  3356.566      6.24
  3355.234      6.57
  3353.903      6.16
  3352.573      6.67
  3351.243      5.93
  3349.921      8.43
  3348.592      9.36
  3347.266     12.28
  3345.939     17.12
  3344.614     14.60
  3343.289     10.24
  3341.970      8.69
  3340.647      8.26
  3339.325      9.32
  3338.004     10.64
  3336.683     11.14
  3335.364      9.97
  3334.050      8.93
  3332.731      8.47
  3331.414      9.00
  3330.097      8.29
  3328.781      8.51
  3327.465      9.25
  3326.156      9.50
  3324.842     10.68
  3323.530     10.91
  3322.218     11.86
  3320.906     12.64
  3319.595     13.60
  3318.291     15.71
  3316.982     19.43
  3315.674     22.49
  3314.366     25.48
  3313.059     28.36
  3311.753     33.05
  3310.453     33.90
  3309.149     35.45
  3307.845     35.80
  3306.542     33.98
  3305.241     22.17
  3303.939     17.62
  3302.639     15.78
  3301.344     10.93
  3300.045      8.40
  3298.747      6.50
  3297.449      6.23
  3296.153      6.02
  3294.857      6.89
  3293.567      7.03
  3292.272      6.70
  3290.979      7.08
  3289.686      7.62
  3288.393     10.43
  3287.102     11.58
  3285.817     10.79
  3284.527      8.63
  3283.238      8.20
  3281.949      8.16
  3280.662      7.15
  3279.375      7.04
  3278.094      7.21
  3276.809      7.83
  3275.524      7.10
  3274.240      8.11
  3272.957      7.15
  3271.675      7.94
  3270.398     10.07
  3269.118     10.31
  3267.838      9.89
  3266.558     10.29
  3265.280      9.63
  3264.002     10.17
  3262.730     11.20
  3261.454     13.17
  3260.178     17.88
  3258.904     24.25
  3257.630     22.25
  3256.356     15.01
  3255.089     11.69
  3253.817     10.88
  3252.546      9.23
  3251.276      9.18
  3250.006      9.44
  3248.737      9.35
  3247.474     11.35
  3246.207     11.45
  3244.940     10.79
  3243.674     10.84
  3242.409     11.33
  3241.145     11.74
  3239.886     12.78
  3238.623     13.02
  3237.361     15.15
  3236.100     19.68
  3234.839     23.08
  3233.579     28.16
  3232.325     29.37
  3231.066     21.24
  3229.809     14.48
  3228.552     12.13
  3227.295     10.76
  3226.040     11.89
  3224.790     10.65
  3223.536     12.12
  3222.282     11.62
  3221.030     12.32
  3219.778     12.47
  3218.527     14.49
  3217.282     14.94
  3216.032     17.65
  3214.783     18.32
  3213.534     20.32
  3212.287     22.57
  3211.040     23.69
  3209.799     24.16
  3208.554     30.94
  3207.309     33.40
  3206.065     32.36
  3204.822     36.15
  3203.579     41.92
  3202.342     39.17
  3201.102     29.23
  3199.861     19.46
  3198.621     12.98
  3197.383     11.20
  3196.145      8.66
  3194.912      8.89
  3193.675      8.82
  3192.440      9.17
  3191.204      8.98
  3189.970     11.11
  3188.736     12.66
  3187.508     15.78
  3186.275     21.96
  3185.043     25.42
  3183.813     29.65
  3182.582     31.08
  3181.353     23.53
  3180.129     18.11
  3178.900     14.37
  3177.673     11.75
  3176.447     11.43
  3175.220     11.08
  3173.995     10.41
  3172.775     11.79
  3171.552     13.19
  3170.328     13.57
  3169.106     14.44
  3167.884     15.66
  3166.663     18.61
  3165.448     19.58
  3164.228     23.56
  3163.009     28.57
  3161.791     31.41
  3160.573     32.94
  3159.356     39.43
  3158.145     35.80
  3156.930     28.16
  3155.715     17.90
  3154.501     11.31
  3153.288      8.19
  3152.075      6.58
  3150.868      5.74
  3149.657      7.31
  3148.446      9.39
  3147.236     11.66
  3146.028     10.60
  3144.819      7.46
  3143.616      6.84
  3142.409      7.18
  3141.203      7.75
  3139.997      7.79
  3138.792      8.94
  3137.588     10.34
  3136.389     14.46
  3135.186     21.76
  3133.984     24.75
  3132.782     20.82
  3131.581     12.74
  3130.381      8.76
  3129.187      7.54
  3127.988      7.28
  3126.790      7.85
  3125.593      8.32
  3124.396      8.77
  3123.200     12.71
  3122.010     16.12
  3120.815     16.44
  3119.621     11.92
  3118.427      9.45
  3117.235      8.40
  3116.043      8.35
  3114.857      8.24
  3113.666      8.09
  3112.476      9.11
  3111.287      9.56
  3110.099      9.85
  3108.910     10.97
  3107.728     12.82
  3106.542     13.71
  3105.356     12.15
  3104.171     10.02
  3102.987      9.93
  3101.803     10.43
  3100.625     10.54
  3099.442     10.30
  3098.261     12.43
  3097.080     11.12
  3095.899     11.08
  3094.719     12.49
  3093.545     12.26
  3092.367     11.88
  3091.189     11.79
  3090.012     12.62
  3088.836     12.86
  3087.660     13.64
  3086.490     14.39
  3085.316     14.82
  3084.142     14.40
  3082.969     14.53
  3081.797     14.38
  3080.625     15.45
  3079.459     15.83
  3078.289     16.69
  3077.119     16.05
  3075.950     17.41
  3074.782     19.14
  3073.614     19.95
  3072.452     20.00
  3071.286     19.47
  3070.120     20.47
  3068.956     19.58
  3067.791     22.17
  3066.627     22.07
  3065.469     24.20
  3064.306     26.16
  3063.145     27.47
  3061.983     31.33
  3060.823     33.90
  3059.663     30.69
  3058.510     35.33
  3057.351     32.94
  3056.193     35.13
  3055.036     37.62
  3053.880     41.72
  3052.724     41.10
  3051.574     47.56
  3050.419     39.53
  3049.266     39.17
  3048.113     43.50
  3046.960     42.49
  3045.808     42.24
  3044.6629999999.00
  3043.511     55.76
  3042.361     48.78
  3041.212     49.07
  3040.063     46.51
  3038.915     53.76
  3037.773     43.37
  3036.626     59.49
  3035.481     69.24
  3034.335     55.01
  3033.190     58.81
  3032.046     46.81
  3030.907     55.51
  3029.765     43.50
  3028.622     39.30
  3027.481     38.73
  3026.341     30.81
  3025.200     22.90
  3024.065     21.32
  3022.927     18.08
  3021.788     16.72
  3020.651     15.15
  3019.514     12.98
  3018.377     11.15
  3017.247     11.89
  3016.111     11.01
  3014.977      9.68
  3013.843      9.75
  3012.710      8.64
  3011.578      8.56
  3010.450      7.44
  3009.319      7.99
  3008.189      8.38
  3007.059      9.36
  3005.929     11.86
  3004.801     12.47
  3003.678      9.81
  3002.550      7.84
  3001.424      7.44
  3000.297      6.72
  2999.172      6.52
  2998.047      7.50
  2996.922      7.66
  2995.804      7.85
  2994.680      8.07
  2993.559      9.31
  2992.437      9.79
  2991.316     11.29
  2990.195     10.83
  2989.080     12.38
  2987.961     14.39
  2986.843     18.10
  2985.724     22.15
  2984.607     26.75
  2983.490     29.89
  2982.379     23.96
  2981.263     14.00
  2980.149     10.03
  2979.035     12.79
  2977.921     15.92
  2976.808     12.72
  2975.700      7.73
  2974.589      5.82
  2973.478      4.94
  2972.367      5.36
  2971.257      6.11
  2970.149      7.14
  2969.044     11.68
  2967.937     14.02
  2966.829     14.77
  2965.722      9.27
  2964.616      7.83
  2963.511      6.06
  2962.411      5.93
  2961.307      6.13
  2960.203      5.47
  2959.099      6.22
  2957.997      5.94
  2956.896      5.88
  2955.799      6.54
  2954.699      6.17
  2953.598      7.38
  2952.499      7.81
  2951.401      9.84
  2950.302     12.65
  2949.209     14.58
  2948.113     18.89
  2947.016     18.50
  2945.921     19.02
  2944.825     19.92
  2943.731     23.21
  2942.642     26.03
  2941.549     19.94
  2940.456     13.15
  2939.364     10.02
  2938.273      9.50
  2937.182      9.81
  2936.096     11.04
  2935.007     10.70
  2933.918     11.41
  2932.829     11.77
  2931.742     14.90
  2930.654     15.76
  2929.573     19.29
  2928.487     25.80
  2927.402     28.07
  2926.317     33.34
  2925.232     32.20
  2924.149     38.70
  2923.070     37.02
  2921.988     36.02
  2920.906     24.97
  2919.825     18.07
  2918.745     10.77
  2917.665     10.58
  2916.590     11.01
  2915.511     13.65
  2914.433     13.09
  2913.356      9.17
  2912.279      5.92
  2911.203      4.90
  2910.131      5.34
  2909.056      4.68
  2907.981      5.12
  2906.908      3.61
  2905.834      4.75
  2904.761      4.59
  2903.694      4.22
  2902.622      4.61
  2901.551      5.08
  2900.481      4.19
  2899.411      4.29
  2898.342      4.65
  2897.277      4.94
  2896.209      4.76
  2895.142      4.88
  2894.075      5.67
  2893.009      4.84
  2891.943      4.93
  2890.883      6.07
  2889.818      5.95
  2888.754      6.66
  2887.691      7.20
  2886.628      7.52
  2885.566      7.85
  2884.509      8.74
  2883.448     11.02
  2882.388     13.45
  2881.328     17.12
  2880.269     21.12
  2879.210     24.34
  2878.156     27.86
  2877.099     29.26
  2876.042     25.46
  2874.986     19.60
  2873.930     18.06
  2872.875     22.57
  2871.825     22.08
  2870.771     15.74
  2869.718      9.88
  2868.664      7.94
  2867.612      5.91
  2866.561      4.89
  2865.514      4.66
  2864.463      4.06
  2863.413      4.57
  2862.364      4.54
  2861.315      4.19
  2860.267      4.39
  2859.224      4.06
  2858.177      4.72
  2857.130      5.14
  2856.084      5.03
  2855.039      5.19
  2853.994      6.34
  2852.954      7.09
  2851.911      9.14
  2850.868      8.86
  2849.825      6.41
  2848.783      4.96
  2847.742      5.19
  2846.705      5.92
  2845.666      5.57
  2844.625      5.58
  2843.587      6.18
  2842.548      6.54
  2841.510      7.28
  2840.477      9.05
  2839.440      9.59
  2838.404      8.22
  2837.368      6.86
  2836.334      6.32
  2835.299      7.20
  2834.270      8.05
  2833.236      8.06
  2832.203      7.53
  2831.171      6.88
  2830.140      5.89
  2829.108      5.93
  2828.082      5.93
  2827.052      6.92
  2826.022      6.44
  2824.994      7.24
  2823.965      7.60
  2822.938      7.45
  2821.915      7.78
  2820.888      7.44
  2819.862      6.99
  2818.837      7.50
  2817.812      7.83
  2816.787      7.16
  2815.768      8.42
  2814.744      8.29
  2813.721      7.66
  2812.699      8.98
  2811.678      9.95
  2810.657     10.68
  2809.640     11.77
  2808.620     10.49
  2807.602     10.41
  2806.582     10.94
  2805.564     11.27
  2804.546     11.18
  2803.533     11.84
  2802.517     13.32
  2801.501     14.15
  2800.485     15.53
  2799.470     16.52
  2798.456     18.61
  2797.446     23.03
  2796.433     24.32
  2795.420     27.15
  2794.408     30.44
  2793.396     32.42
  2792.385     34.36
  2791.379     34.17
  2790.368     36.42
  2789.359     34.59
  2788.351     32.31
  2787.342     24.66
  2786.334     20.16
  2785.331     17.14
  2784.324     14.93
  2783.318     13.92
  2782.313     17.15
  2781.307     22.99
  2780.303     31.13
  2779.303     29.97
  2778.299     18.84
  2777.297     10.87
  2776.294      7.92
  2775.292      7.76
  2774.291     10.36
  2773.295     15.24
  2772.295     17.17
  2771.294     13.84
  2770.295      9.06
  2769.297      6.51
  2768.298      5.05
  2767.305      4.11
  2766.309      4.56
  2765.312      4.28
  2764.316      3.91
  2763.321      4.22
  2762.326      4.22
  2761.336      4.93
  2760.342      4.61
  2759.349      4.71
  2758.356      4.56
  2757.364      4.32
  2756.372      4.83
  2755.385      4.33
  2754.395      5.59
  2753.405      5.68
  2752.416      5.72
  2751.427      6.04
  2750.438      5.45
  2749.454      5.07
  2748.467      5.97
  2747.480      5.70
  2746.494      6.13
  2745.508      6.12
  2744.523      5.95
  2743.542      6.35
  2742.558      6.88
  2741.574      8.17
  2740.592      9.17
  2739.609     10.87
  2738.627     10.11
  2737.645      7.60
  2736.668      7.05
  2735.688      6.97
  2734.708      6.32
  2733.729      6.91
  2732.750      7.07
  2731.771      7.55
  2730.798      7.40
  2729.820      7.69
  2728.843      6.36
  2727.867      7.62
  2726.891      6.28
  2725.916      6.62
  2724.946      7.24
  2723.971      8.30
  2722.998      8.99
  2722.024     10.56
  2721.052     10.88
  2720.079     10.46
  2719.112      8.33
  2718.141      7.60
  2717.171      7.51
  2716.200      7.71
  2715.231      7.61
  2714.262      8.23
  2713.298      7.46
  2712.330      7.75
  2711.362      7.74
  2710.395      7.42
  2709.429      8.84
  2708.463      8.63
  2707.502      8.92
  2706.538      8.73
  2705.573      8.93
  2704.609      8.62
  2703.645      8.72
  2702.683      8.14
  2701.724      8.86
  2700.763      9.79
  2699.802      9.40
  2698.841      9.61
  2697.880      9.69
  2696.921     10.35
  2695.966     11.84
  2695.008     11.24
  2694.049     11.04
  2693.091     10.93
  2692.134     10.92
  2691.177     11.97
  2690.225     12.64
  2689.270     13.38
  2688.315     13.95
  2687.360     16.99
  2686.406     19.78
  2685.453     21.89
  2684.503     23.32
  2683.551     21.74
  2682.599     22.42
  2681.647     24.44
  2680.696     27.38
  2679.745     23.13
  2678.799     18.28
  2677.850     16.73
  2676.901     16.19
  2675.952     16.45
  2675.004     16.61
  2674.057     18.56
  2673.114     19.03
  2672.167     20.81
  2671.221     20.08
  2670.276     22.62
  2669.331     24.37
  2668.386     26.15
  2667.446     28.72
  2666.503     27.60
  2665.560     32.20
  2664.617     33.94
  2663.676     36.35
  2662.733     39.01
  2661.796     43.78
  2660.856     45.17
  2659.916     37.42
  2658.976     41.18
  2658.037     40.88
  2657.099     47.43
  2656.165     41.41
  2655.227     47.43
  2654.290     41.52
  2653.354     41.84
  2652.418     34.27
  2651.482     34.47
  2650.551     35.47
  2649.616     31.23
  2648.683     23.92
  2647.749     18.77
  2646.815     14.22
  2645.883     13.78
  2644.955     11.97
  2644.023     11.35
  2643.092     12.22
  2642.161     12.57
  2641.231     16.45
  2640.302     19.74
  2639.377     23.56
  2638.448     19.98
  2637.520     13.86
  2636.592     10.83
  2635.665      9.92
  2634.738     10.00
  2633.816     10.11
  2632.890      9.97
  2631.965     10.63
  2631.040     10.95
  2630.116     10.65
  2629.192     12.48
  2628.272     12.77
  2627.350     14.21
  2626.427     17.54
  2625.506     20.06
  2624.584     26.35
  2623.664     31.18
  2622.747     33.54
  2621.827     32.88
  2620.907     35.13
  2619.989     24.09
  2619.070     14.38
  2618.152      9.16
  2617.239      6.63
  2616.322      6.33
  2615.405      5.26
  2614.489      5.60
  2613.573      5.67
  2612.658      5.84
  2611.747      6.04
  2610.833      7.87
  2609.920      9.54
  2609.007     15.74
  2608.094     18.41
  2607.182     17.14
  2606.274     11.73
  2605.363      7.54
  2604.452      6.07
  2603.542      6.31
  2602.632      5.86
  2601.722      6.48
  2600.817      6.79
  2599.909      7.56
  2599.001      8.31
  2598.094      8.89
  2597.187     10.14
  2596.280     12.49
  2595.378     16.13
  2594.472     19.18
  2593.567     25.51
  2592.663     26.65
  2591.759     32.49
  2590.855     31.92
  2589.956     30.84
  2589.053     27.70
  2588.150     19.46
  2587.249     14.37
  2586.348     10.99
  2585.447      9.01
  2584.550     10.13
  2583.650     10.74
  2582.751     11.50
  2581.852     13.97
  2580.954     18.22
  2580.055     21.87
  2579.162     28.51
  2578.264     28.85
  2577.368     33.62
  2576.472     38.31
  2575.576     29.75
  2574.681     23.06
  2573.790     21.23
  2572.896     14.17
  2572.002      9.86
  2571.109      6.96
  2570.216      5.25
  2569.323      4.81
  2568.435      5.07
  2567.544      4.56
  2566.653      4.64
  2565.762      5.15
  2564.873      5.58
  2563.982      4.87
  2563.097      4.80
  2562.208      4.97
  2561.320      5.53
  2560.432      6.04
  2559.545      4.70
  2558.658      6.69
  2557.775      6.79
  2556.890      5.83
  2556.004      7.01
  2555.119      7.06
  2554.235      6.70
  2553.351      7.69
  2552.470      6.29
  2551.587      7.62
  2550.705      8.69
  2549.822      9.46
  2548.940     11.22
  2548.059     14.28
  2547.182     13.31
  2546.302     12.33
  2545.422     12.16
  2544.542     13.34
  2543.663     18.16
  2542.784     21.69
  2541.910     27.30
  2541.032     27.60
  2540.155     26.71
  2539.279     20.72
  2538.402     11.24
  2537.526      7.10
  2536.654      6.70
  2535.779      6.18
  2534.905      7.00
  2534.031      7.25
  2533.157      9.12
  2532.284     12.08
  2531.415     16.70
  2530.543     20.78
  2529.670     16.82
  2528.800     12.17
  2527.928      9.30
  2527.058      7.50
  2526.191      8.77
  2525.322      8.52
  2524.453      9.31
  2523.584     12.06
  2522.716     15.75
  2521.848     19.46
  2520.984     23.56
  2520.118     26.14
  2519.251     27.39
  2518.385     25.81
  2517.520     29.90
  2516.654     31.30
  2515.794     33.26
  2514.929     33.24
  2514.066     25.49
  2513.202     15.21
  2512.339     10.83
  2511.477     10.10
  2510.618      9.24
  2509.757      7.44
  2508.896      6.33
  2508.035      5.47
  2507.175      5.24
  2506.315      5.23
  2505.456      5.49
  2504.601      5.07
  2503.742      5.83
  2502.884      6.12
  2502.027      5.40
  2501.170      5.14
  2500.313      4.73
  2499.460      5.10
  2498.604      4.79
  2497.749      5.12
  2496.894      5.36
  2496.039      5.20
  2495.185      5.11
  2494.335      4.66
  2493.482      5.27
  2492.629      5.73
  2491.777      5.20
  2490.925      6.10
  2490.074      5.91
  2489.227      7.34
  2488.376      9.50
  2487.526      9.08
  2486.676      7.08
  2485.827      7.38
  2484.978      6.97
  2484.133      5.69
  2483.285      5.97
  2482.438      6.58
  2481.591      5.63
  2480.744      5.58
  2479.898      6.59
  2479.056      5.62
  2478.210      6.50
  2477.365      6.94
  2476.521      7.20
  2475.677      7.65
  2474.833      7.40
  2473.993      6.94
  2473.151      7.49
  2472.308      7.52
  2471.466      7.66
  2470.625      7.69
  2469.784      7.52
  2468.947      7.97
  2468.107      9.25
  2467.267      8.55
  2466.428      9.32
  2465.588      9.69
  2464.750      9.66
  2463.916     10.68
  2463.078     12.34
  2462.240     15.35
  2461.404     19.49
  2460.568     23.95
  2459.732     26.75
  2458.900     27.95
  2458.064     17.88
  2457.230     10.76
  2456.396      7.52
  2455.562      7.25
  2454.729      7.10
  2453.899      7.68
  2453.067      7.28
  2452.235      7.64
  2451.403      7.71
  2450.572      7.67
  2449.741      8.43
  2448.914      9.57
  2448.084     11.13
  2447.254     13.41
  2446.425     14.84
  2445.597     21.71
  2444.768     24.39
  2443.944     27.11
  2443.116     27.86
  2442.290     24.59
  2441.462     17.11
  2440.637     15.56
  2439.811     13.03
  2438.989     10.92
  2438.164     10.23
  2437.340      8.58
  2436.515      8.93
  2435.692      8.08
  2434.868      8.10
  2434.049      8.51
  2433.227      8.44
  2432.405      7.73
  2431.583      7.16
  2430.762      7.34
  2429.941      7.87
  2429.124      8.70
  2428.304      8.07
  2427.485      8.25
  2426.665      8.92
  2425.847      9.05
  2425.028      9.66
  2424.214     10.19
  2423.396     11.29
  2422.579     10.98
  2421.763     11.23
  2420.947     12.30
  2420.130     12.52
  2419.319     13.38
  2418.504     14.72
  2417.689     16.25
  2416.875     18.41
  2416.061     22.03
  2415.248     24.76
  2414.438     28.20
  2413.626     31.15
  2412.814     38.61
  2412.002     34.11
  2411.191     34.79
  2410.380     35.24
  2409.573     21.39
  2408.763     15.83
  2407.953      9.86
  2407.144      7.85
  2406.335      6.10
  2405.527      6.57
  2404.722      7.55
  2403.914      8.60
  2403.107      9.25
  2402.301      8.45
  2401.494      8.14
  2400.688      6.90
  2399.886      6.91
  2399.081      5.59
  2398.276      5.47
  2397.472      6.66
  2396.667      6.27
  2395.864      6.90
  2395.064      6.83
  2394.262      6.78
  2393.459      8.00
  2392.657      9.31
  2391.856      9.45
  2391.055     10.16
  2390.257     10.89
  2389.457     11.66
  2388.656     15.32
  2387.857     20.22
  2387.058     22.69
  2386.260     28.60
  2385.464     30.35
  2384.666     32.45
  2383.869     26.67
  2383.071     17.72
  2382.275     11.28
  2381.479      7.78
  2380.686      6.08
  2379.890      5.55
  2379.095      3.82
  2378.301      4.26
  2377.506      5.16
  2376.712      4.52
  2375.922      3.68
  2375.129      4.02
  2374.336      4.60
  2373.544      4.81
  2372.752      4.14
  2371.960      5.40
  2371.172      5.03
  2370.382      4.94
  2369.591      4.99
  2368.801      5.84
  2368.012      4.91
  2367.223      5.50
  2366.437      6.40
  2365.649      7.08
  2364.860      7.48
  2364.073      6.22
  2363.285      5.35
  2362.499      5.72
  2361.716      6.31
  2360.929      6.33
  2360.144      6.95
  2359.359      7.23
  2358.574      6.41
  2357.789      5.92
  2357.008      6.00
  2356.225      6.35
  2355.441      7.26
  2354.658      7.80
  2353.876      6.89
  2353.094      7.73
  2352.316      9.54
  2351.534     11.96
  2350.753     17.98
  2349.972     21.27
  2349.192     25.25
  2348.412     21.27
  2347.636     16.70
  2346.857     11.06
  2346.079      7.36
  2345.300      6.99
  2344.522      7.65
  2343.745      6.24
  2342.971      7.05
  2342.194      7.13
  2341.418      6.84
  2340.642      7.17
  2339.867      6.62
  2339.091      6.86
  2338.320      8.30
  2337.545      8.24
  2336.771      7.34
  2335.998      7.49
  2335.224      7.81
  2334.452      8.52
  2333.682      9.14
  2332.910      9.37
  2332.139     12.46
  2331.367     14.55
  2330.596     21.21
  2329.826     25.24
  2329.059     27.95
  2328.289     28.05
  2327.519     20.31
  2326.751     13.90
  2325.982      9.28
  2325.213      8.16
  2324.449      6.44
  2323.682      6.50
  2322.914      6.63
  2322.147      6.54
  2321.381      6.78
  2320.615      7.13
  2319.853      7.65
  2319.087      7.91
  2318.323      9.97
  2317.558     12.81
  2316.794     15.59
  2316.030     19.76
  2315.270     23.75
  2314.507     21.46
  2313.744     15.54
  2312.982     10.56
  2312.220      7.24
  2311.459      6.39
  2310.701      5.62
  2309.940      6.09
  2309.180      5.32
  2308.420      5.01
  2307.660      6.53
  2306.901      5.07
  2306.142      6.67
  2305.387      6.85
  2304.628      5.85
  2303.871      6.37
  2303.114      6.20
  2302.357      6.10
  2301.601      6.48
  2300.847      5.77
  2300.092      6.16
  2299.336      6.61
  2298.580      6.40
  2297.826      6.85
  2297.071      6.88
  2296.321      6.68
  2295.567      7.09
  2294.814      7.90
  2294.061      8.36
  2293.308     10.12
  2292.556     11.45
  2291.807     12.35
  2291.056     11.28
  2290.305      8.58
  2289.554      8.88
  2288.804      7.71
  2288.054      7.64
  2287.308      7.30
  2286.559      7.93
  2285.810      7.67
  2285.061      7.93
  2284.313      7.57
  2283.565      8.72
  2282.821     11.16
  2282.074     13.93
  2281.328     15.13
  2280.581     13.83
  2279.835     10.08
  2279.090      9.84
  2278.348      7.55
  2277.603      8.06
  2276.858      8.71
  2276.115      7.41
  2275.371      8.11
  2274.627      8.44
  2273.887      8.28
  2273.145      8.46
  2272.403      8.29
  2271.660      7.84
  2270.920      9.19
  2270.178      8.47
  2269.440      9.14
  2268.700      8.85
  2267.960      9.45
  2267.220     10.11
  2266.481      9.05
  2265.742      9.34
  2265.006      9.50
  2264.268      9.76
  2263.530     10.86
  2262.793     10.69
  2262.055     12.71
  2261.318     15.00
  2260.585     14.38
  2259.849     15.29
  2259.113     13.42
  2258.378     13.06
  2257.643     14.34
  2256.908     15.16
  2256.177     17.97
  2255.443     20.91
  2254.709     24.69
  2253.976     26.81
  2253.243     30.21
  2252.511     31.56
  2251.781     38.43
  2251.050     23.68
  2250.319     14.24
  2249.587     10.09
  2248.856      7.96
  2248.126      7.52
  2247.399      7.19
  2246.669      7.41
  2245.940      7.49
  2245.211      7.48
  2244.483      7.69
  2243.754      7.86
  2243.029      8.58
  2242.302      8.50
  2241.574      7.65
  2240.847      8.52
  2240.122      9.09
  2239.395     11.26
  2238.672     13.98
  2237.947     18.74
  2237.222     21.09
  2236.497     17.51
  2235.772     14.42
  2235.049     13.75
  2234.328     11.60
  2233.605     12.88
  2232.882     12.82
  2232.159     14.65
  2231.437     17.11
  2230.715     21.69
  2229.996     24.93
  2229.275     26.90
  2228.554     32.22
  2227.834     36.35
  2227.114     31.13
  2226.393     30.09
  2225.677     23.03
  2224.958     16.90
  2224.240     13.04
  2223.521     11.59
  2222.803     10.81
  2222.085     10.83
  2221.371     13.85
  2220.654     18.47
  2219.937     25.10
  2219.220     28.00
  2218.504     30.47
  2217.789     27.92
  2217.077     22.38
  2216.362     15.49
  2215.647     13.34
  2214.933     12.00
  2214.219     13.07
  2213.506     17.25
  2212.795     23.08
  2212.082     27.58
  2211.370     27.97
  2210.657     31.87
  2209.946     17.69
  2209.234      9.46
  2208.526      7.69
  2207.815      7.17
  2207.104      5.29
  2206.394      5.64
  2205.685      5.85
  2204.975      6.73
  2204.269      6.86
  2203.560      7.76
  2202.852      8.12
  2202.144      9.76
  2201.436      8.82
  2200.728      7.77
  2200.024      7.15
  2199.318      7.27
  2198.611      7.79
  2197.905      7.04
  2197.199      7.51
  2196.494      8.46
  2195.792      9.50
  2195.087      9.58
  2194.383     10.20
  2193.679      9.99
  2192.975      8.32
  2192.272      9.49
  2191.572      9.10
  2190.869     10.00
  2190.167      9.34
  2189.465      9.01
  2188.763      9.88
  2188.062      9.11
  2187.364     10.33
  2186.663     10.25
  2185.963     11.17
  2185.263     12.49
  2184.563     12.89
  2183.864     17.13
  2183.168     21.03
  2182.469     25.97
  2181.771     28.92
  2181.073     33.14
  2180.375     28.21
  2179.678     25.34
  2178.984     16.63
  2178.288     11.06
  2177.592      9.32
  2176.895      8.53
  2176.200      8.52
  2175.504      8.16
  2174.813      7.83
  2174.118      9.48
  2173.423      9.15
  2172.729      9.78
  2172.036      8.07
  2171.343      9.23
  2170.653      9.73
  2169.960     12.56
  2169.268     15.09
  2168.576     20.33
  2167.884     22.69
  2167.193     24.07
  2166.505     16.44
  2165.814     13.04
  2165.124     10.84
  2164.434      8.84
  2163.744      8.39
  2163.055      9.64
  2162.369      9.56
  2161.680      9.93
  2160.991     12.00
  2160.303     14.26
  2159.616     18.90
  2158.928     22.02
  2158.244     22.89
  2157.557     19.75
  2156.871     15.69
  2156.186     12.58
  2155.499     10.00
  2154.814      8.76
  2154.132     10.61
  2153.447      9.82
  2152.763      9.71
  2152.079     10.78
  2151.395      9.43
  2150.711     10.18
  2150.031      9.61
  2149.349      9.92
  2148.666     11.75
  2147.984     10.48
  2147.302     10.12
  2146.621     11.65
  2145.942     13.74
  2145.261     16.60
  2144.581     16.30
  2143.901     16.15
  2143.221     18.01
  2142.542     18.12
  2141.865     20.07
  2141.186     18.81
  2140.507     14.38
  2139.829     12.91
  2139.151     12.15
  2138.474     11.49
  2137.799     11.11
  2137.122     12.26
  2136.446     11.83
  2135.770     11.67
  2135.093     12.77
  2134.417     13.52
  2133.745     12.32
  2133.070     11.92
  2132.395     13.09
  2131.721     11.87
  2131.047     11.46
  2130.373     11.87
  2129.703     11.63
  2129.029     12.51
  2128.356     13.49
  2127.684     13.32
  2127.012     14.74
  2126.340     15.38
  2125.669     15.11
  2125.000     13.86
  2124.329     14.78
  2123.658     16.24
  2122.988     17.85
  2122.319     19.38
  2121.649     19.60
  2120.982     23.07
  2120.313     22.13
  2119.644     22.33
  2118.977     23.09
  2118.308     18.93
  2117.640     17.81
  2116.976     19.47
  2116.309     20.06
  2115.642     21.26
  2114.975     20.87
  2114.309     21.79
  2113.644     20.89
  2112.981     24.18
  2112.315     23.08
  2111.651     23.03
  2110.986     24.07
  2110.322     26.67
  2109.658     24.28
  2108.997     25.19
  2108.333     26.61
  2107.670     33.86
  2107.008     36.12
  2106.345     37.15
  2105.683     45.99
  2105.024     50.14
  2104.363     45.82
  2103.702     41.64
  2103.041     38.61
  2102.381     44.61
  2101.720     39.04
  2101.063     37.93
  2100.404     46.45
  2099.744     57.70
  2099.085     41.03
  2098.427     61.18
  2097.768     53.54
  2097.113     51.77
  2096.455     58.01
  2095.798     42.00
  2095.141     75.33
  2094.484     48.57
  2093.827     52.72
  2093.174     44.66
  2092.518     58.64
  2091.862     71.42
  2091.207     53.54
  2090.552     50.63
  2089.898     41.92
  2089.246     50.80
  2088.592     53.44
  2087.938     59.85
  2087.285     42.28
  2086.632     39.53
  2085.979     36.27
  2085.329     30.21
  2084.677     30.59
  2084.025     25.32
  2083.374     22.13
  2082.722     17.79
  2082.071     16.70
  2081.424     13.63
  2080.773     12.95
  2080.123     11.92
  2079.473     11.88
  2078.824     10.61
  2078.174     10.73
  2077.528      9.37
  2076.880      9.40
  2076.232     10.14
  2075.584      9.92
  2074.936     10.18
  2074.289     10.49
  2073.645     10.28
  2072.998     10.51
  2072.351     11.07
  2071.705     11.19
  2071.060     12.14
  2070.414     12.05
  2069.771     13.68
  2069.127     13.21
  2068.481     14.82
  2067.838     16.54
  2067.193     19.79
  2066.549     24.71
  2065.909     28.32
  2065.266     32.38
  2064.623     34.27
  2063.980     33.96
  2063.339     41.29
  2062.696     35.54
  2062.057     41.68
  2061.416     42.08
  2060.775     45.39
  2060.134     48.22
  2059.494     34.86
  2058.854     21.73
  2058.217     15.49
  2057.577     13.54
  2056.938     10.40
  2056.299      9.06
  2055.661      8.67
  2055.022      8.30
  2054.387      8.74
  2053.749      9.23
  2053.112      9.97
  2052.475     10.99
  2051.838     12.62
  2051.201     14.38
  2050.567     15.88
  2049.932     19.88
  2049.296     24.30
  2048.661     27.34
  2048.025     31.60
  2047.391     32.55
  2046.759     36.57
  2046.125     36.35
  2045.491     38.55
  2044.857     44.31
  2044.224     50.14
  2043.591     40.34
  2042.960     35.54
  2042.329     24.87
  2041.696     17.65
  2041.064     13.94
  2040.433     10.23
  2039.801      9.76
  2039.173      9.05
  2038.543      7.27
  2037.912      7.35
  2037.282      6.97
  2036.653      6.18
  2036.023      6.91
  2035.396      7.23
  2034.767      6.31
  2034.139      6.30
  2033.510      7.06
  2032.882      7.56
  2032.255      6.92
  2031.630      7.31
  2031.003      8.33
  2030.376      8.90
  2029.749      9.50
  2029.123     10.49
  2028.497     13.29
  2027.874     15.67
  2027.249     21.10
  2026.623     24.49
  2025.998     27.20
  2025.374     32.04
  2024.750     32.08
  2024.128     30.80
  2023.504     20.24
  2022.881     13.44
  2022.258      9.31
  2021.635      6.76
  2021.012      6.98
  2020.393      6.25
  2019.771      6.28
  2019.149      6.55
  2018.528      6.88
  2017.906      7.06
  2017.286      9.22
  2016.668     11.09
  2016.048     13.62
  2015.427     12.14
  2014.808     11.69
  2014.188     12.33
  2013.569     13.73
  2012.953     12.52
  2012.335     15.76
  2011.717     16.57
  2011.098     20.12
  2010.480     20.57
  2009.864     28.51
  2009.249     30.44
  2008.632     33.13
  2008.016     35.47
  2007.399     38.92
  2006.783     38.55
  2006.167     36.40
  2005.554     41.84
  2004.939     30.23
  2004.325     25.34
  2003.710     20.61
  2003.096     19.17
  2002.482     18.26
  2001.871     15.32
  2001.258     12.83
  2000.644     13.18
  2000.031     15.75
  1999.418     16.41
  1998.806     16.54
  1998.197     11.98
  1997.585      7.78
  1996.973      6.23
  1996.363      7.40
  1995.751      9.54
  1995.141     12.80
  1994.533     16.48
  1993.923     19.80
  1993.313     19.12
  1992.704     15.49
  1992.095     11.80
  1991.486      7.46
  1990.879      4.86
  1990.271      4.62
  1989.663      4.12
  1989.055      3.97
  1988.448      4.06
  1987.840      4.05
  1987.235      3.64
  1986.629      3.74
  1986.022      3.54
  1985.417      3.41
  1984.810      4.00
  1984.205      3.24
  1983.602      3.26
  1982.997      3.48
  1982.392      3.61
  1981.787      3.87
  1981.183      3.31
  1980.580      4.39
  1979.978      3.62
  1979.375      3.24
  1978.771      3.96
  1978.169      5.02
  1977.566      4.38
  1976.964      3.53
  1976.365      3.34
  1975.763      3.56
  1975.162      3.82
  1974.560      3.50
  1973.959      3.73
  1973.358      4.10
  1972.760      4.72
  1972.160      4.12
  1971.561      4.69
  1970.961      4.25
  1970.362      4.85
  1969.763      4.11
  1969.164      4.90
  1968.568      5.14
  1967.970      4.96
  1967.372      4.56
  1966.774      3.95
  1966.177      3.37
  1965.580      4.04
  1964.986      5.14
  1964.389      5.56
  1963.793      4.58
  1963.196      4.95
  1962.601      4.85
  1962.005      4.67
  1961.412      5.72
  1960.818      5.38
  1960.223      5.97
  1959.629      6.22
  1959.034      5.97
  1958.441      6.31
  1957.850      7.39
  1957.256      7.76
  1956.663      9.01
  1956.070     10.32
  1955.478     13.98
  1954.885     14.90
  1954.296     14.36
  1953.705     13.48
  1953.113     10.50
  1952.521      8.16
  1951.931      6.97
  1951.340      8.13
  1950.752      9.33
  1950.162     10.02
  1949.573     10.43
  1948.983     11.39
  1948.393      8.16
  1947.805      7.65
  1947.218      7.43
  1946.630      6.84
  1946.042      7.69
  1945.453      7.60
  1944.866      7.37
  1944.279      7.43
  1943.694      7.82
  1943.107      7.96
  1942.520      8.18
  1941.934      8.53
  1941.347      7.74
  1940.762      9.11
  1940.178     10.08
  1939.594     10.45
  1939.008     11.91
  1938.423     13.53
  1937.839     14.64
  1937.255     18.14
  1936.674     20.75
  1936.090     22.94
  1935.506     27.47
  1934.923     28.80
  1934.340     29.74
  1933.757     34.62
  1933.177     38.86
  1932.595     29.86
  1932.014     20.49
  1931.432     15.95
  1930.851     10.13
  1930.270      8.81
  1929.691      7.05
  1929.110      7.25
  1928.530      6.64
  1927.950      6.65
  1927.370      6.85
  1926.791      7.64
  1926.214      7.35
  1925.635      7.96
  1925.056      9.36
  1924.478     11.45
  1923.900     15.83
  1923.322     19.19
  1922.746     20.64
  1922.169     22.73
  1921.592     26.28
  1921.015     29.70
  1920.438     32.01
  1919.862     29.80
  1919.288     19.39
  1918.712     11.26
  1918.137      6.60
  1917.561      5.77
  1916.986      4.84
  1916.411      4.28
  1915.839      4.35
  1915.265      4.85
  1914.690      4.29
  1914.117      4.40
  1913.543      4.16
  1912.970      4.84
  1912.399      4.47
  1911.827      4.26
  1911.254      4.65
  1910.682      4.57
  1910.110      5.73
  1909.538      7.49
  1908.969      8.91
  1908.398     11.46
  1907.827     13.29
  1907.256     11.93
  1906.685      9.58
  1906.115      6.58
  1905.547      6.20
  1904.978      6.79
  1904.408      4.97
  1903.839      5.72
  1903.270      5.00
  1902.701      4.97
  1902.136      5.57
  1901.568      5.74
  1901.000      5.33
  1900.432      5.31
  1899.864      4.74
  1899.297      5.49
  1898.733      5.99
  1898.166      4.96
  1897.600      5.35
  1897.034      5.66
  1896.468      5.31
  1895.902      5.44
  1895.339      5.31
  1894.774      4.92
  1894.208      6.08
  1893.644      6.22
  1893.080      5.78
  1892.516      6.02
  1891.954      6.55
  1891.390      6.04
  1890.827      6.76
  1890.264      5.91
  1889.701      5.43
  1889.139      5.97
  1888.579      6.75
  1888.017      5.86
  1887.455      6.75
  1886.893      6.13
  1886.332      6.00
  1885.771      7.14
  1885.212      5.76
  1884.651      6.98
  1884.091      6.57
  1883.531      6.48
  1882.971      7.09
  1882.411      7.01
  1881.854      7.77
  1881.295      7.59
  1880.736      6.88
  1880.178      7.07
  1879.619      6.94
  1879.062      8.23
  1878.506      7.44
  1877.948      7.65
  1877.391      8.53
  1876.834      8.27
  1876.277      8.95
  1875.720     10.00
  1875.166     10.47
  1874.610     12.21
  1874.054     12.27
  1873.499     12.48
  1872.943     11.67
  1872.388     12.50
  1871.835     15.22
  1871.281     18.42
  1870.726     21.34
  1870.172     22.81
  1869.618     24.39
  1869.065     22.69
  1868.513     22.79
  1867.960     21.49
  1867.407     23.84
  1866.854     26.54
  1866.302     25.66
  1865.750     19.35
  1865.200     16.30
  1864.648     11.59
  1864.097      9.49
  1863.546      7.62
  1862.995      7.97
  1862.445      7.78
  1861.896      7.72
  1861.346      8.92
  1860.796      8.50
  1860.246     10.33
  1859.697     12.95
  1859.147     14.78
  1858.601     18.32
  1858.052     24.77
  1857.503     26.19
  1856.955     27.68
  1856.407     25.66
  1855.859     19.54
  1855.314     14.58
  1854.767     11.18
  1854.219      9.88
  1853.673      8.34
  1853.126      7.75
  1852.580      8.08
  1852.036      7.74
  1851.490      7.28
  1850.945      7.66
  1850.398      8.61
  1849.854      8.08
  1849.309      7.46
  1848.766      8.51
  1848.222     11.25
  1847.678     11.36
  1847.134     12.50
  1846.590     10.82
  1846.046     10.53
  1845.505      9.21
  1844.962      8.57
  1844.420      8.77
  1843.877      9.46
  1843.335      7.78
  1842.793      9.29
  1842.254      8.11
  1841.712      8.46
  1841.170      8.76
  1840.630      9.00
  1840.089      8.44
  1839.548      9.06
  1839.010      9.79
  1838.470     10.96
  1837.930     13.46
  1837.390     17.29
  1836.851     20.57
  1836.311     25.34
  1835.775     26.26
  1835.236     25.32
  1834.698     19.43
  1834.160     15.05
  1833.621     12.50
  1833.084     11.12
  1832.549     10.05
  1832.011     10.22
  1831.474      8.67
  1830.937      8.55
  1830.401      9.37
  1829.865      9.14
  1829.331      8.97
  1828.795      8.03
  1828.259      9.76
  1827.724      9.56
  1827.188      9.67
  1826.654     10.41
  1826.119     11.04
  1825.587     10.88
  1825.053     11.75
  1824.519     10.85
  1823.985     11.15
  1823.451     10.84
  1822.918     12.48
  1822.387     14.19
  1821.854     16.51
  1821.322     18.90
  1820.789     20.31
  1820.257     20.57
  1819.725     19.26
  1819.196     16.03
  1818.664     12.60
  1818.133     11.33
  1817.602     12.14
  1817.072     10.98
  1816.541     11.48
  1816.013     11.29
  1815.483     11.34
  1814.953     11.23
  1814.424     11.13
  1813.894     10.44
  1813.365     11.12
  1812.839     11.42
  1812.310     12.28
  1811.781     12.75
  1811.253     12.94
  1810.725     13.72
  1810.198     13.65
  1809.672     11.88
  1809.145     12.57
  1808.618     13.70
  1808.091     13.38
  1807.564     13.77
  1807.039     15.08
  1806.514     15.10
  1805.989     16.73
  1805.463     18.62
  1804.938     19.36
  1804.412     18.88
  1803.887     18.97
  1803.365     17.39
  1802.840     18.23
  1802.316     18.14
  1801.792     16.72
  1801.268     18.02
  1800.744     18.43
  1800.223     19.09
  1799.700     22.19
  1799.177     21.78
  1798.655     23.61
  1798.132     23.76
  1797.610     29.26
  1797.090     30.67
  1796.568     31.89
  1796.047     39.04
  1795.525     40.55
  1795.004     35.88
  1794.483     46.05
  1793.965     41.07
  1793.445     40.41
  1792.925     40.88
  1792.405     41.64
  1791.885     49.67
  1791.365     52.43
  1790.848     45.55
  1790.329     41.41
  1789.810     38.89
  1789.292     30.00
  1788.773     23.06
  1788.255     20.66
  1787.740     19.30
  1787.221     17.37
  1786.704     17.10
  1786.187     18.04
  1785.670     17.54
  1785.153     18.14
  1784.638     21.01
  1784.122     21.62
  1783.606     24.42
  1783.090     23.90
  1782.575     22.82
  1782.059     23.50
  1781.546     25.58
  1781.031     28.72
  1780.516     27.21
  1780.002     28.69
  1779.487     31.90
  1778.973     34.19
  1778.461     40.99
  1777.948     47.76
  1777.434     41.96
  1776.921     42.28
  1776.408     51.23
  1775.895     46.11
  1775.385     52.72
  1774.8739999999.00
  1774.360     49.07
  1773.8489999999.00
  1773.336     48.71
  1772.825     58.32
  1772.316     52.14
  1771.805     51.40
  1771.295     62.24
  1770.784     44.91
  1770.273     55.76
  1769.763     46.75
  1769.255     52.43
  1768.746     40.70
  1768.236     35.26
  1767.727     31.28
  1767.218     28.13
  1766.709     27.11
  1766.203     25.00
  1765.695     23.99
  1765.187     18.87
  1764.678     17.01
  1764.171     12.93
  1763.663     11.43
  1763.158     10.42
  1762.651      9.31
  1762.144      9.21
  1761.637      8.43
  1761.131      8.15
  1760.625      6.93
  1760.121      6.80
  1759.615      5.92
  1759.110      5.61
  1758.604      6.09
  1758.099      6.50
  1757.595      5.12
  1757.092      5.16
  1756.587      5.58
  1756.083      5.87
  1755.579      7.66
  1755.075      8.17
  1754.572     10.72
  1754.070     12.20
  1753.567     10.32
  1753.064      8.18
  1752.562      6.98
  1752.060      5.44
  1751.557      5.04
  1751.057      4.66
  1750.555      3.72
  1750.053      3.91
  1749.552      4.12
  1749.051      4.32
  1748.550      4.94
  1748.051      3.47
  1747.551      3.97
  1747.050      4.32
  1746.550      3.74
  1746.050      4.07
  1745.551      4.12
  1745.053      4.68
  1744.554      3.77
  1744.055      3.99
  1743.556      4.27
  1743.057      5.17
  1742.559      3.98
  1742.063      4.80
  1741.565      4.21
  1741.067      4.86
  1740.569      5.21
  1740.072      5.13
  1739.575      5.87
  1739.080      7.93
  1738.583     10.26
  1738.087     11.12
  1737.591     12.48
  1737.095     10.57
  1736.599      7.68
  1736.105      6.61
  1735.610      5.60
  1735.115      5.76
  1734.619      4.98
  1734.125      5.49
  1733.630      4.48
  1733.138      5.06
  1732.644      4.39
  1732.150      4.12
  1731.656      4.89
  1731.162      5.58
  1730.669      4.73
  1730.178      5.01
  1729.685      5.01
  1729.193      3.78
  1728.700      4.11
  1728.208      4.28
  1727.716      4.64
  1727.226      4.52
  1726.734      5.18
  1726.243      5.33
  1725.751      5.13
  1725.261      4.70
  1724.770      5.14
  1724.281      4.53
  1723.791      4.35
  1723.300      4.44
  1722.811      4.84
  1722.321      5.10
  1721.832      4.34
  1721.344      4.91
  1720.855      5.54
  1720.366      5.62
  1719.877      5.29
  1719.388      6.19
  1718.900      6.03
  1718.414      6.39
  1717.926      6.83
  1717.439      6.08
  1716.951      6.09
  1716.464      5.39
  1715.977      5.34
  1715.492      5.61
  1715.005      6.16
  1714.519      5.90
  1714.033      7.32
  1713.547      7.82
  1713.061      8.53
  1712.577     11.14
  1712.092     13.61
  1711.607     17.55
  1711.122     19.34
  1710.637     24.16
  1710.152     22.73
  1709.670     20.76
  1709.186     14.73
  1708.702     10.05
  1708.218      9.33
  1707.735      8.03
  1707.252      6.47
  1706.770      6.73
  1706.287      6.27
  1705.805      5.84
  1705.322      5.61
  1704.840      5.74
  1704.358      5.54
  1703.878      5.42
  1703.396      4.20
  1702.915      5.65
  1702.433      5.47
  1701.952      5.74
  1701.471      4.83
  1700.991      5.63
  1700.512      5.53
  1700.031      5.58
  1699.552      6.10
  1699.072      6.50
  1698.592      6.68
  1698.113      5.34
  1697.635      5.61
  1697.156      6.19
  1696.677      5.46
  1696.198      5.74
  1695.720      6.79
  1695.242      5.65
  1694.766      5.92
  1694.288      6.15
  1693.811      5.88
  1693.333      7.89
  1692.856      8.75
  1692.379      8.70
  1691.904      8.78
  1691.427      7.67
  1690.951      6.97
  1690.475      6.08
  1689.999      6.44
  1689.523      6.68
  1689.049      6.86
  1688.574      6.19
  1688.099      6.70
  1687.624      7.68
  1687.149      8.12
  1686.674      9.71
  1686.202      9.98
  1685.727      9.32
  1685.253      7.51
  1684.779      6.57
  1684.306      6.94
  1683.833      5.74
  1683.361      6.68
  1682.888      7.01
  1682.415      5.50
  1681.942      5.80
  1681.470      5.89
  1680.998      7.00
  1680.528      6.54
  1680.056      7.55
  1679.584      7.54
  1679.113      6.84
  1678.642      6.77
  1678.171      6.74
  1677.702      6.79
  1677.231      6.08
  1676.761      7.28
  1676.291      5.81
  1675.820      6.47
  1675.351      6.97
  1674.883      6.46
  1674.178      6.91
  1673.241      6.45
  1672.305      7.22
  1671.368      6.85
  1670.433      7.52
  1669.500      7.22
  1668.565      7.48
  1667.632      7.89
  1666.701      9.19
  1665.769     10.12
  1664.839     15.76
  1663.910     22.12
  1662.980     24.26
  1662.052     14.85
  1661.125     10.82
  1660.199      8.58
  1659.272      9.17
  1658.349      9.54
  1657.423     13.26
  1656.500     18.15
  1655.578     27.08
  1654.656     30.49
  1653.733     21.73
  1652.815      9.41
  1651.895      6.46
  1650.975      6.74
  1650.058      6.28
  1649.140      7.71
  1648.223     13.65
  1647.309     20.26
  1646.393     14.89
  1645.478      8.86
  1644.566      7.34
  1643.653      6.58
  1642.740      6.08
  1641.828      6.31
  1640.919      6.60
  1640.008      6.70
  1639.099      5.90
  1638.192      6.41
  1637.284      7.10
  1636.377      7.19
  1635.472      7.97
  1634.566      8.91
  1633.661      7.74
  1632.759      7.76
  1631.855      6.99
  1630.952      8.26
  1630.052      9.28
  1629.151      8.85
  1628.250      9.53
  1627.352     12.64
  1626.453     15.01
  1625.555     12.43
  1624.659      8.32
  1623.762      6.88
  1622.866      7.18
  1621.973      7.23
  1621.078      7.13
  1620.184      6.79
  1619.293      6.72
  1618.401      7.14
  1617.509      7.40
  1616.620      7.74
  1615.730      7.41
  1614.841      7.53
  1613.954      6.87
  1613.066      7.10
  1612.178      7.75
  1611.293      7.95
  1610.408      7.18
  1609.522      8.32
  1608.640      8.10
  1607.757      7.71
  1606.874      7.25
  1605.993      7.37
  1605.112      8.08
  1604.232      7.87
  1603.353      7.69
  1602.474      8.29
  1601.595      7.67
  1600.719      7.25
  1599.843      7.40
  1598.966      8.28
  1598.092      7.26
  1597.218      8.64
  1596.343      8.77
  1595.471      8.78
  1594.599      8.45
  1593.727      8.21
  1592.857      7.81
  1591.987      8.55
  1591.116      7.97
  1590.249      8.36
  1589.380      9.58
  1588.512     11.28
  1587.647     13.79
  1586.781     11.65
  1585.916     10.93
  1585.052     12.32
  1584.188     13.71
  1583.324     15.59
  1582.463     23.78
  1581.601     26.26
  1580.740     18.17
  1579.881     11.41
  1579.021      9.60
  1578.162      9.05
  1577.305      8.96
  1576.447      8.92
  1575.590      9.21
  1574.735      9.10
  1573.879      9.03
  1573.024      9.33
  1572.172      9.16
  1571.318      9.18
  1570.465      9.82
  1569.614      9.71
  1568.762     10.93
  1567.911     12.73
  1567.063     13.72
  1566.214     11.75
  1565.365     10.74
  1564.518      9.73
  1563.670      9.45
  1562.824     10.58
  1561.980     10.09
  1561.134      9.89
  1560.289     10.65
  1559.447     10.65
  1558.604     11.09
  1557.761     11.10
  1556.921     11.59
  1556.079     11.64
  1555.239     12.40
  1554.400     15.87
  1553.561     22.77
  1552.722     23.63
  1551.886     16.31
  1551.049     11.69
  1550.212     12.16
  1549.378     11.97
  1548.543     11.11
  1547.708     12.04
  1546.877     11.76
  1546.043     11.94
  1545.210     11.96
  1544.380     13.11
  1543.550     13.03
  1542.719     15.36
  1541.891     18.14
  1541.061     16.98
  1540.233     13.96
  1539.407     13.09
  1538.580     12.30
  1537.753     13.13
  1536.929     12.78
  1536.104     13.97
  1535.279     13.72
  1534.457     14.74
  1533.634     15.86
  1532.811     18.46
  1531.991     18.18
  1531.170     17.32
  1530.350     15.58
  1529.531     17.70
  1528.712     17.47
  1527.894     17.95
  1527.077     19.35
  1526.260     19.43
  1525.443     19.31
  1524.629     21.55
  1523.814     22.35
  1522.999     24.50
  1522.187     25.61
  1521.373     26.83
  1520.561     30.69
  1519.750     32.53
  1518.939     38.07
  1518.128     41.48
  1517.320     43.01
  1516.510     46.11
  1515.701     50.06
  1514.895     50.97
  1514.088     47.56
  1513.281     53.02
  1512.477     52.43
  1511.671     36.42
  1510.866     24.48
  1510.063     16.65
  1509.259     15.94
  1508.456     15.58
  1507.656     16.34
  1506.854     18.17
  1506.053     20.89
  1505.254     25.75
  1504.454     34.57
  1503.655     39.93
  1502.858     42.20
  1502.060     52.14
  1501.263     49.29
  1500.468     47.89
  1499.672     52.14
  1498.877     47.89
  1498.084     41.29
  1497.290     23.68
  1496.496     13.04
  1495.705      8.29
  1494.913      6.08
  1494.121      5.65
  1493.332      4.22
  1492.542      4.10
  1491.752      3.72
  1490.964      3.90
  1490.176      4.03
  1489.388      3.75
  1488.602      3.12
  1487.816      4.01
  1487.030      3.56
  1486.246      3.85
  1485.461      4.30
  1484.677      4.73
  1483.896      4.29
  1483.113      5.14
  1482.330      7.12
  1481.551      6.55
  1480.770      6.08
  1479.989      5.92
  1479.211      5.19
  1478.432      5.19
  1477.653      4.70
  1476.877      5.64
  1476.100      5.41
  1475.323      6.65
  1474.548      6.79
  1473.773      7.67
  1472.998      7.13
  1472.225      6.45
  1471.452      6.25
  1470.679      6.41
  1469.908      6.51
  1469.136      6.72
  1468.365      6.03
  1467.596      6.56
  1466.826      6.70
  1466.057      6.82
  1465.289      6.73
  1464.521      6.66
  1463.754      7.69
  1462.989      7.74
  1462.222      9.11
  1461.456     11.60
  1460.693     12.48
  1459.928     10.90
  1459.164      8.32
  1458.402      8.31
  1457.640      8.80
  1456.877      7.98
  1456.117      9.10
  1455.356      8.30
  1454.596      9.25
  1453.837      9.70
  1453.078     13.01
  1452.320     14.82
  1451.564     12.91
  1450.806     11.95
  1450.049     11.36
  1449.295     10.89
  1448.539     10.89
  1447.784     11.21
  1447.031     11.46
  1446.278     13.79
  1445.524     14.30
  1444.773     12.38
  1444.021     12.91
  1443.269     12.72
  1442.520     13.32
  1441.770     12.72
  1441.020     12.28
  1440.272     13.16
  1439.524     12.54
  1438.776     12.86
  1438.029     14.31
  1437.283     14.64
  1436.537     15.18
  1435.791     14.56
  1435.047     14.62
  1434.303     16.14
  1433.559     17.18
  1432.817     17.22
  1432.074     17.63
  1431.332     19.92
  1430.592     21.62
  1429.851     23.08
  1429.110     25.13
  1428.372     27.52
  1427.633     29.58
  1426.894     37.04
  1426.157     39.49
  1425.420     40.77
  1424.683     44.91
  1423.948     49.00
  1423.212     45.28
  1422.476     36.17
  1421.744     16.34
  1421.009     12.46
  1420.276     15.34
  1419.544     23.70
  1418.812     32.53
  1418.079     27.09
  1417.350     17.39
  1416.619     14.91
  1415.889     14.83
  1415.160     17.02
  1414.431     16.90
  1413.703     18.82
  1412.976     20.81
  1412.249     22.73
  1411.522     26.56
  1410.797     27.98
  1410.072     31.50
  1409.346     39.96
  1408.623     43.92
  1407.899     44.86
  1407.176     44.51
  1406.454     48.50
  1405.732     41.72
  1405.010     48.16
  1404.291     47.12
  1403.569     51.95
  1402.8499999999.00
  1402.132     55.01
  1401.413     60.03
  1400.694     64.68
  1399.977     49.90
  1399.260     72.41
  1398.543     58.32
  1397.828     68.48
  1397.1139999999.00
  1396.397    101.52
  1395.684     48.43
  1394.970     42.28
  1394.256     37.84
  1393.545     26.67
  1392.833     20.76
  1392.121     17.32
  1391.410     15.78
  1390.700     12.50
  1389.990     11.56
  1389.281      9.82
  1388.572      8.72
  1387.863      8.48
  1387.157      8.33
  1386.449      7.03
  1385.742      7.09
  1385.037      7.90
  1384.331      8.63
  1383.626     10.97
  1382.922      9.03
  1382.219      6.27
  1381.514      5.70
  1380.813      4.79
  1380.110      5.05
  1379.407      4.77
  1378.708      5.05
  1378.007      4.11
  1377.306      4.66
  1376.607      4.84
  1375.908      4.26
  1375.209      4.37
  1374.511      5.41
  1373.814      4.65
  1373.116      5.48
  1372.421      5.43
  1371.725      7.27
  1371.029     11.72
  1370.335     20.59
  1369.640     23.08
  1368.946     14.47
  1368.253      7.40
  1367.561      5.79
  1366.868      5.04
  1366.177      4.56
  1365.486      4.14
  1364.795      5.25
  1364.106      4.50
  1363.416      3.94
  1362.726      3.88
  1362.039      4.42
  1361.350      4.09
  1360.662      4.84
  1359.976      5.03
  1359.289      4.83
  1358.603      5.13
  1357.918      5.42
  1357.234      5.22
  1356.549      5.85
  1355.865      5.71
  1355.182      6.53
  1354.499      5.90
  1353.817      5.19
  1353.135      6.03
  1352.453      4.67
  1351.773      5.11
  1351.093      6.28
  1350.413      5.10
  1349.734      4.93
  1349.055      5.49
  1348.377      5.46
  1347.700      5.46
  1347.023      4.66
  1346.345      5.35
  1345.670      5.35
  1344.994      5.90
  1344.319      4.78
  1343.645      5.36
  1342.970      6.11
  1342.296      6.44
  1341.624      5.79
  1340.951      5.86
  1340.279      6.38
  1339.608      5.87
  1338.936      6.13
  1338.266      5.90
  1337.596      6.41
  1336.927      6.75
  1336.257      8.31
  1335.589     10.41
  1334.921     12.74
  1334.253     11.46
  1333.587      8.52
  1332.920      7.54
  1332.253      8.12
  1331.589      9.42
  1330.924      8.60
  1330.258      7.78
  1329.595      7.92
  1328.931      8.00
  1328.268     10.36
  1327.606     14.18
  1326.944     15.20
  1326.281     11.74
  1325.621      8.46
  1324.960      7.69
  1324.300      6.56
  1323.641      6.48
  1322.982      6.53
  1322.323      7.09
  1321.666      6.38
  1321.007      6.67
  1320.350      6.89
  1319.694      6.94
  1319.038      6.81
  1318.381      7.04
  1317.727      7.68
  1317.072      8.39
  1316.417      7.92
  1315.764      8.46
  1315.111      9.42
  1314.458     13.77
  1313.806     21.22
  1313.154     25.62
  1312.502     19.65
  1311.853     11.54
  1311.202      9.33
  1310.552      7.66
  1309.903      7.84
  1309.254      8.25
  1308.605      7.62
  1307.958      7.01
  1307.310      7.53
  1306.663      7.17
  1306.017      7.23
  1305.371      7.75
  1304.725      7.73
  1304.081      8.22
  1303.436      7.41
  1302.791      8.21
  1302.149      7.78
  1301.505      7.69
  1300.862      7.82
  1300.221      7.48
  1299.579      8.20
  1298.937      8.12
  1298.297      8.05
  1297.656      8.28
  1297.016      8.85
  1296.378      7.91
  1295.739      8.65
  1295.100      8.53
  1294.463      8.54
  1293.825      9.07
  1293.188     10.06
  1292.552      9.66
  1291.915      9.34
  1291.280     10.65
  1290.646     10.47
  1290.010     10.54
  1289.376     12.37
  1288.743     16.22
  1288.110     24.15
  1287.476     29.74
  1286.845     28.89
  1286.213     20.53
  1285.581     13.45
  1284.951     10.30
  1284.320      9.50
  1283.690      9.80
  1283.061      9.30
  1282.431      9.15
  1281.803     10.04
  1281.176     10.56
  1280.547     10.22
  1279.920     11.20
  1279.294     11.11
  1278.667     10.41
  1278.041     11.08
  1277.417     13.16
  1276.792     15.61
  1276.167     19.41
  1275.543     22.07
  1274.919     19.63
  1274.296     17.71
  1273.674     19.52
  1273.052     21.18
  1272.430     17.16
  1271.809     14.13
  1271.188     14.31
  1270.567     16.07
  1269.948     16.39
  1269.328     16.83
  1268.709     18.30
  1268.092     18.98
  1267.473     21.81
  1266.855     23.03
  1266.238     24.30
  1265.622     26.97
  1265.005     32.94
  1264.389     38.86
  1263.774     42.33
  1263.159     41.18
  1262.544     63.64
  1261.931     43.97
  1261.317     51.58
  1260.703     51.32
  1260.092     45.71
  1259.479     56.69
  1258.867     60.40
  1258.257     37.04
  1257.646     23.94
  1257.034     18.15
  1256.426     15.80
  1255.815     11.83
  1255.206     10.09
  1254.598      9.81
  1253.989      8.54
  1253.381      7.99
  1252.775      8.13
  1252.167      7.14
  1251.561      6.83
  1250.955      7.43
  1250.350      7.01
  1249.744      6.88
  1249.140      8.18
  1248.535      7.59
  1247.931      7.48
  1247.329      7.77
  1246.726      7.82
  1246.123      7.70
  1245.521      8.24
  1244.919      7.75
  1244.318      8.85
  1243.718     10.90
  1243.117     13.02
  1242.517     17.74
  1241.918     22.50
  1241.319     27.64
  1240.719     33.82
  1240.122     29.30
  1239.525     19.93
  1238.927     11.23
  1238.331      9.48
  1237.734      7.38
  1237.137      7.07
  1236.543      6.71
  1235.947      6.93
  1235.352      6.55
  1234.759      6.81
  1234.165      6.82
  1233.571      6.64
  1232.979      6.88
  1232.385      7.00
  1231.793      6.52
  1231.202      7.02
  1230.610      7.08
  1230.019      7.06
  1229.430      7.70
  1228.839      7.60
  1228.249      7.22
  1227.661      7.70
  1227.072      7.46
  1226.483      7.40
  1225.896      8.08
  1225.308      7.62
  1224.720      7.65
  1224.135      7.74
  1223.548      6.86
  1222.962      8.25
  1222.377      7.34
  1221.792      7.70
  1221.207      8.80
  1220.624      8.50
  1220.040      8.66
  1219.456      8.51
  1218.874      8.72
  1218.292      9.48
  1217.709      9.32
  1217.129      9.07
  1216.547      9.26
  1215.966      9.71
  1215.386      8.51
  1214.806      8.60
  1214.226      9.86
  1213.648      8.87
  1213.069      9.99
  1212.490      9.60
  1211.913      9.55
  1211.335     10.06
  1210.758     10.41
  1210.182     10.74
  1209.605     10.17
  1209.029     10.08
  1208.455     10.04
  1207.879     10.51
  1207.304      9.96
  1206.731      9.99
  1206.157     10.95
  1205.583      9.84
  1205.011     11.00
  1204.438     10.88
  1203.866     11.00
  1203.295     11.62
  1202.723     12.22
  1202.151     11.87
  1201.582     12.65
  1201.011     11.92
  1200.442     12.72
  1199.873     12.50
  1199.304     13.27
  1198.735     13.82
  1198.168     14.19
  1197.600     14.10
  1197.032     15.81
  1196.466     15.46
  1195.899     16.43
  1195.333     17.93
  1194.768     21.12
  1194.202     22.34
  1193.637     21.54
  1193.073     19.95
  1192.509     21.87
  1191.945     24.55
  1191.382     26.04
  1190.819     29.84
  1190.257     34.11
  1189.695     40.63
  1189.133     41.56
  1188.572     47.06
  1188.012     45.94
  1187.451     46.05
  1186.890     53.12
  1186.332     46.69
  1185.772     30.14
  1185.213     20.88
  1184.655     15.57
  1184.096     12.48
  1183.538     10.50
  1182.982     10.32
  1182.425      8.72
  1181.868      8.53
  1181.313      8.67
  1180.757      8.69
  1180.201      8.87
  1179.646      9.79
  1179.092      8.78
  1178.537     10.04
  1177.984     10.12
  1177.430     12.15
  1176.877     15.13
  1176.325     18.55
  1175.772     15.29
  1175.220     13.33
  1174.670     10.99
  1174.119     10.78
  1173.567     10.73
  1173.018     10.67
  1172.468     10.78
  1171.918     10.63
  1171.370     11.50
  1170.821     10.82
  1170.272     11.45
  1169.725     13.05
  1169.177     12.08
  1168.629     13.50
  1168.083     14.18
  1167.536     15.51
  1166.990     16.80
  1166.445     18.56
  1165.899     20.52
  1165.354     22.39
  1164.811     24.42
  1164.266     28.68
  1163.722     35.73
  1163.180     36.89
  1162.636     45.94
  1162.093     43.64
  1161.552     44.61
  1161.010     41.64
  1160.468     23.27
  1159.928     15.23
  1159.386     11.05
  1158.846      9.12
  1158.306      8.88
  1157.767      9.35
  1157.227      8.35
  1156.689      8.62
  1156.150      9.88
  1155.612      9.49
  1155.075     10.14
  1154.537     11.07
  1154.000     11.00
  1153.464     10.63
  1152.927     11.34
  1152.391     12.37
  1151.857     16.89
  1151.321     17.92
  1150.787     19.73
  1150.252     16.72
  1149.719     12.93
  1149.185     12.23
  1148.652     12.82
  1148.119     13.39
  1147.586     13.72
  1147.055     14.35
  1146.522     13.83
  1145.991     14.69
  1145.461     15.59
  1144.930     15.90
  1144.399     18.01
  1143.870     19.70
  1143.340     22.28
  1142.811     26.17
  1142.282     35.17
  1141.754     42.37
  1141.225     37.29
  1140.698     42.54
  1140.171     40.27
  1139.644     28.30
  1139.118     21.11
  1138.591     19.24
  1138.065     21.43
  1137.540     19.56
  1137.015     19.37
  1136.490     19.94
  1135.966     23.43
  1135.442     26.85
  1134.918     29.20
  1134.395     34.29
  1133.872     42.97
  1133.349     46.57
  1132.828     52.23
  1132.305     55.26
  1131.783     48.92
  1131.263     31.87
  1130.742     18.82
  1130.221     15.45
  1129.702     16.91
  1129.182     17.24
  1128.662     22.02
  1128.144     24.95
  1127.625     30.52
  1127.106     36.27
  1126.589     43.78
  1126.071     48.09
  1125.553     44.86
  1125.036     34.27
  1124.521     29.64
  1124.004     26.99
  1123.488     35.08
  1122.973     42.92
  1122.458     56.15
  1121.943     53.33
  1121.429     52.23
  1120.915     46.40
  1120.401     28.68
  1119.888     18.83
  1119.375     14.79
  1118.862     12.35
  1118.351     13.10
  1117.839     12.99
  1117.327     13.61
  1116.816     13.39
  1116.305     13.80
  1115.794     14.87
  1115.285     16.76
  1114.775     22.33
  1114.265     23.13
  1113.757     20.38
  1113.247     19.18
  1112.739     17.72
  1112.231     17.62
  1111.723     18.68
  1111.216     16.83
  1110.709     19.57
  1110.202     18.54
  1109.696     18.68
  1109.190     20.62
  1108.685     21.11
  1108.179     21.63
  1107.675     23.92
  1107.169     23.09
  1106.665     24.86
  1106.162     24.47
  1105.658     25.39
  1105.155     27.09
  1104.653     29.34
  1104.150     31.96
  1103.647     32.67
  1103.146     38.22
  1102.644     36.45
  1102.142     39.69
  1101.643     45.99
  1101.1429999999.00
  1100.641     63.89
  1100.1429999999.00
  1099.643     51.40
  1099.143     50.97
  1098.645     60.79
  1098.146     50.80
  1097.648     63.89
  1097.151     57.26
  1096.6539999999.00
  1096.1569999999.00
  1095.660     59.32
  1095.163     66.12
  1094.667     56.97
  1094.1719999999.00
  1093.676     66.43
  1093.1809999999.00
  1092.686     62.46
  1092.192     72.41
  1091.697     49.22
  1091.205     50.22
  1090.711     56.28
  1090.217     67.41
  1089.7259999999.00
  1089.232     53.12
  1088.740     60.03
  1088.2499999999.00
  1087.758     69.24
  1087.2669999999.00
  1086.7769999999.00
  1086.2859999999.00
  1085.795     69.24
  1085.3069999999.00
  1084.8179999999.00
  1084.3279999999.00
  1083.839     56.15
  1083.3509999999.00
  1082.8629999999.00
  1082.375     73.50
  1081.8879999999.00
  1081.4009999999.00
  1080.914     55.01
  1080.427     72.94
  1079.941     48.16
  1079.455     39.07
  1078.970     38.02
  1078.484     37.48
  1078.000     31.20
  1077.515     26.02
  1077.031     26.40
  1076.548     25.06
  1076.064     23.71
  1075.581     23.23
  1075.099     22.47
  1074.616     25.34
  1074.133     28.73
  1073.652     34.57
  1073.170     37.34
  1072.689     54.43
  1072.2099999999.00
  1071.728     49.29
  1071.247     67.75
  1070.7689999999.00
  1070.288     47.56
  1069.808     25.74
  1069.330     14.62
  1068.851      8.99
  1068.373      5.81
  1067.896      5.75
  1067.417      4.58
  1066.940      3.41
  1066.463      3.16
  1065.987      2.94
  1065.510      2.75
  1065.035      3.49
  1064.559      3.09
  1064.083      3.56
  1063.608      4.03
  1063.133      5.92
  1062.658     10.46
  1062.185     13.21
  1061.711     11.55
  1061.237      8.26
  1060.765      4.77
  1060.292      4.66
  1059.819      6.10
  1059.347      8.91
  1058.875      9.36
  1058.403      6.41
  1057.932      3.95
  1057.461      4.10
  1056.990      2.96
  1056.520      3.19
  1056.050      3.30
  1055.580      2.66
  1055.111      3.16
  1054.642      2.97
  1054.172      3.42
  1053.705      3.29
  1053.236      3.04
  1052.768      2.50
  1052.301      3.26
  1051.834      3.47
  1051.367      3.18
  1050.901      3.33
  1050.434      4.10
  1049.968      3.95
  1049.502      4.24
  1049.037      3.06
  1048.572      3.73
  1048.107      3.52
  1047.643      3.70
  1047.178      3.41
  1046.715      4.22
  1046.251      3.75
  1045.788      4.23
  1045.326      4.10
  1044.863      4.07
  1044.400      4.58
  1043.939      4.46
  1043.477      4.51
  1043.015      4.49
  1042.554      4.38
  1042.094      5.25
  1041.633      4.97
  1041.173      5.17
  1040.713      5.02
  1040.254      4.90
  1039.795      4.83
  1039.336      4.55
  1038.877      5.01
  1038.419      5.20
  1037.961      4.88
  1037.503      5.28
  1037.046      5.78
  1036.589      5.81
  1036.132      5.90
  1035.676      5.55
  1035.219      5.56
  1034.763      5.18
  1034.308      5.39
  1033.853      5.44
  1033.397      6.17
  1032.943      5.73
  1032.488      6.08
  1032.034      6.32
  1031.581      5.73
  1031.127      6.02
  1030.674      5.27
  1030.221      5.83
  1029.768      6.28
  1029.316      6.34
  1028.864      6.61
  1028.413      6.35
  1027.961      6.36
  1027.510      7.18
  1027.059      6.19
  1026.608      6.15
  1026.159      6.72
  1025.708      6.39
  1025.259      6.84
  1024.810      7.89
  1024.361      7.21
  1023.912      8.29
  1023.464      8.41
  1023.016      7.45
  1022.567      7.22
  1022.120      7.59
  1021.673      8.16
  1021.225      7.64
  1020.780      9.02
  1020.333      7.80
  1019.886      8.79
  1019.441      8.03
  1018.995      8.55
  1018.550      8.70
  1018.105      9.11
  1017.660     10.15
  1017.216      9.86
  1016.772      9.79
  1016.329     10.20
  1015.885     10.29
  1015.442     10.53
  1014.999     10.53
  1014.556     11.48
  1014.115     12.09
  1013.672     13.93
  1013.230     14.12
  1012.789     14.65
  1012.348     16.59
  1011.906     20.89
  1011.466     24.86
  1011.026     32.71
  1010.586     31.66
  1010.146     39.40
  1009.707     39.56
  1009.267     36.52
  1008.829     38.55
  1008.390     40.77
  1007.952     41.14
  1007.515     44.31
  1007.076     43.28
  1006.639     37.10
  1006.201     22.91
  1005.765     13.63
  1005.328      9.21
  1004.891      7.83
  1004.456      7.05
  1004.020      7.13
  1003.584      6.47
  1003.150      6.81
  1002.715      7.62
  1002.280      7.17
  1001.846      8.47
  1001.412      9.57
  1000.978     12.95
  1000.545     18.57
  1000.112     25.86
   999.678     30.14
   999.246     40.13
   998.813     37.56
   998.381     38.19
   997.950     27.43
   997.518     14.28
   997.087      9.08
   996.656      8.19
   996.225      6.96
   995.794      7.84
   995.365      7.17
   994.935      7.57
   994.505      6.85
   994.077      6.74
   993.647      7.33
   993.219      6.95
   992.791      7.61
   992.362      8.58
   991.934      7.22
   991.507      7.91
   991.079      7.90
   990.652      9.08
   990.226      8.73
   989.799      8.16
   989.372      9.00
   988.947      8.61
   988.521      8.40
   988.096      9.28
   987.671      9.24
   987.246      9.78
   986.821     10.19
   986.397      9.89
   985.973      9.38
   985.549     10.38
   985.126     10.92
   984.702     10.43
   984.280     11.32
   983.857     12.00
   983.435     14.17
   983.012     14.81
   982.591     13.88
   982.169     13.13
   981.748     11.98
   981.327     11.46
   980.906     11.79
   980.485     12.80
   980.066     12.91
   979.646     14.11
   979.226     12.81
   978.807     13.03
   978.388     13.97
   977.968     14.54
   977.550     14.50
   977.132     15.15
   976.713     15.41
   976.296     15.91
   975.878     15.97
   975.460     16.53
   975.044     16.09
   974.627     18.97
   974.210     17.94
   973.795     20.26
   973.379     19.05
   972.963     19.15
   972.548     21.16
   972.133     20.41
   971.717     21.98
   971.303     22.52
   970.888     26.41
   970.474     26.88
   970.061     26.40
   969.647     28.80
   969.234     29.50
   968.821     30.84
   968.408     35.97
   967.995     38.73
   967.584     33.94
   967.172     43.28
   966.760     40.27
   966.349     51.58
   965.937     65.23
   965.526     44.31
   965.116     56.83
   964.706     63.40
   964.295     57.55
   963.886     50.46
   963.476     59.15
   963.0679999999.00
   962.658     51.77
   962.249     47.50
   961.840     58.01
   961.432     47.24
   961.024     60.79
   960.616    101.52
   960.209     67.75
   959.802     53.65
   959.394     57.70
   958.988     79.21
   958.581     52.33
   958.175     60.59
   957.7709999999.00
   957.3649999999.00
   956.9589999999.00
   956.5539999999.00
   956.148     64.41
   955.743     78.33
   955.339     65.52
   954.935     83.60
   954.531     50.88
   954.127     57.55
   953.7249999999.00
   953.3209999999.00
   952.918     55.51
   952.515     62.69
   952.113     64.15
   951.7119999999.00
   951.309     57.70
   950.907     68.85
   950.506     73.50
   950.1059999999.00
   949.7049999999.00
   949.303     66.43
   948.903     64.95
   948.5039999999.00
   948.1039999999.00
   947.704     58.16
   947.3049999999.00
   946.905     63.40
   946.5069999999.00
   946.107     66.43
   945.710     64.68
   945.312     76.02
   944.913     72.94
   944.516     57.41
   944.119     52.62
   943.722     39.69
   943.325     34.06
   942.928     29.09
   942.532     26.58
   942.136     27.72
   941.740     30.06
   941.344     33.16
   940.950     43.97
   940.554     39.43
   940.159     29.94
   939.765     18.49
   939.370     11.23
   938.976      8.02
   938.583      7.17
   938.189      5.61
   937.796      4.25
   937.403      4.50
   937.010      3.88
   936.617      4.25
   936.225      3.56
   935.833      3.46
   935.441      2.89
   935.050      2.42
   934.658      2.46
   934.266      2.73
   933.876      2.10
   933.486      2.35
   933.095      2.11
   932.705      1.82
   932.315      1.29
   931.926      2.30
   931.537      1.89
   931.147      1.95
   930.758      2.18
   930.370      2.33
   929.981      2.45
   929.593      2.87
   929.205      1.59
   928.817      2.54
   928.430      3.87
   928.043      5.43
   927.656      5.01
   927.269      5.32
   926.883      5.18
   926.496      3.81
   926.110      3.98
   925.725      3.73
   925.339      3.38
   924.953      3.55
   924.569      3.55
   924.184      3.21
   923.799      3.49
   923.415      3.48
   923.031      3.48
   922.647      4.50
   922.264      5.01
   921.880      5.44
   921.497      7.10
   921.115      8.98
   920.732     13.76
   920.349     20.24
   919.967     24.28
   919.585     30.30
   919.203     31.94
   918.822     31.55
   918.441     31.72
   918.060     31.48
   917.679     32.27
   917.299     21.47
   916.918     13.03
   916.539     10.47
   916.158      8.25
   915.779      6.29
   915.400      5.88
   915.021      5.67
   914.642      4.51
   914.263      4.02
   913.885      3.86
   913.506      2.74
   913.129      3.49
   912.751      3.64
   912.373      3.80
   911.997      3.03
   911.620      2.84
   911.242      3.29
   910.866      2.99
   910.490      3.48
   910.114      3.83
   909.739      3.29
   909.363      2.84
   908.987      3.59
   908.613      3.91
   908.238      3.42
   907.862      3.40
   907.489      3.38
   907.114      4.28
   906.740      4.39
   906.366      3.82
   905.993      3.32
   905.620      2.50
   905.246      3.32
   904.874      3.62
   904.501      3.10
   904.128      3.34
   903.757      3.16
   903.385      3.64
   903.013      3.38
   902.642      3.41
   902.271      3.20
   901.899      3.48
   901.530      3.10
   901.159      3.46
   900.788      4.09
   900.419      3.80
   900.048      3.81
   899.678      3.89
   899.310      3.81
   898.940      3.22
   898.571      4.32
   898.203      3.69
   897.834      3.86
   897.466      3.72
   897.098      4.48
   896.730      4.24
   896.363      3.66
   895.996      3.04
   895.629      3.94
   895.261      6.11
   894.895      7.26
   894.529     11.23
   894.162     15.57
   893.797     18.18
   893.430     17.76
   893.065     12.63
   892.700      8.26
   892.334      5.64
   891.970      4.44
   891.606      4.05
   891.241      4.57
   890.876      4.28
   890.513      4.38
   890.149      5.28
   889.785      4.46
   889.422      4.35
   889.059      4.96
   888.696      5.11
   888.334      4.51
   887.971      4.99
   887.609      3.59
   887.248      4.53
   886.885      4.37
   886.524      3.91
   886.163      3.78
   885.801      3.85
   885.440      4.19
   885.081      4.56
   884.720      4.61
   884.359      3.73
   884.000      4.11
   883.640      4.81
   883.280      4.14
   882.921      4.43
   882.562      4.76
   882.203      4.85
   881.845      4.59
   881.486      5.00
   881.127      5.12
   880.770      4.45
   880.412      4.32
   880.054      4.31
   879.698      4.99
   879.340      4.32
   878.983      4.40
   878.627      4.58
   878.270      4.69
   877.914      3.95
   877.558      4.52
   877.202      4.86
   876.846      4.47
   876.491      5.46
   876.136      5.48
   875.780      5.74
   875.426      5.36
   875.072      5.50
   874.717      5.11
   874.363      6.46
   874.010      5.11
   873.655      6.04
   873.302      5.41
   872.949      5.07
   872.596      5.50
   872.243      6.46
   871.891      6.60
   871.538      7.52
   871.186      8.06
   870.834     10.88
   870.482     15.98
   870.131     20.82
   869.780     25.09
   869.428     25.60
   869.078     21.55
   868.727     15.89
   868.376     13.09
   868.026     15.03
   867.676     17.91
   867.326     18.85
   866.977     15.50
   866.627     11.57
   866.278      8.45
   865.929      7.18
   865.580      6.94
   865.231      6.62
   864.884      6.21
   864.535      5.93
   864.187      6.80
   863.840      9.78
   863.492     12.26
   863.145     12.08
   862.798     12.07
   862.451     12.99
   862.104     13.53
   861.758     15.47
   861.411     17.19
   861.065     16.68
   860.720     12.43
   860.374      8.73
   860.028      6.99
   859.683      6.53
   859.338      6.90
   858.993      6.08
   858.649      6.44
   858.304      6.99
   857.960      7.79
   857.616      7.25
   857.272      7.16
   856.929      5.94
   856.586      6.65
   856.243      6.29
   855.899      6.94
   855.557      6.39
   855.214      7.47
   854.872      6.96
   854.530      6.87
   854.188      6.65
   853.846      7.70
   853.505      7.04
   853.164      8.47
   852.822      8.58
   852.482     10.63
   852.141     11.51
   851.800      9.67
   851.460      8.93
   851.120      7.48
   850.780      6.25
   850.441      6.70
   850.101      6.79
   849.761      7.13
   849.423      7.22
   849.084      6.58
   848.745      6.33
   848.407      6.95
   848.068      6.68
   847.730      6.32
   847.393      7.31
   847.055      6.77
   846.718      6.32
   846.381      6.07
   846.043      6.79
   845.707      6.40
   845.370      6.48
   845.034      6.38
   844.697      6.89
   844.362      6.87
   844.025      7.10
   843.690      6.93
   843.354      6.55
   843.019      6.20
   842.684      6.37
   842.350      7.62
   842.015      7.25
   841.680      7.24
   841.346      8.06
   841.012      7.26
   840.678      7.96
   840.345      7.29
   840.011      7.00
   839.677      6.93
   839.345      7.25
   839.012      8.44
   838.679      7.51
   838.347      8.88
   838.015      8.33
   837.682      7.24
   837.351      8.34
   837.019      8.32
   836.688      8.19
   836.357      8.55
   836.025      8.45
   835.694      8.51
   835.364      8.63
   835.034      8.37
   834.703      8.74
   834.374      9.33
   834.043      8.47
   833.713      8.26
   833.384      9.33
   833.055      9.37
   832.725     11.11
   832.397     13.21
   832.068     19.62
   831.740     25.59
   831.411     29.53
   831.083     27.13
   830.755     21.48
   830.428     15.92
   830.100      9.99
   829.772      9.20
   829.446      9.54
   829.118      9.09
   828.792      8.53
   828.465      8.96
   828.139      8.98
   827.812      8.36
   827.487      8.43
   827.161      8.52
   826.835      8.08
   826.510      9.76
   826.184     10.31
   825.859      9.43
   825.535     10.40
   825.210     10.10
   824.885     10.18
   824.561      9.92
   824.237      9.56
   823.913      9.73
   823.590     10.22
   823.266      9.59
   822.942     10.20
   822.620      9.66
   822.296     10.23
   821.974     10.73
   821.652      9.56
   821.329     10.48
   821.006     11.70
   820.685     10.19
   820.363     10.95
   820.041     10.75
   819.720     11.62
   819.399     10.77
   819.077     11.81
   818.756     11.47
   818.436     11.10
   818.115     12.05
   817.795     11.90
   817.475     12.96
   817.155     12.99
   816.835     13.90
   816.516     12.45
   816.196     12.49
   815.877     13.57
   815.559     12.61
   815.240     13.72
   814.920     14.76
   814.603     14.48
   814.284     14.56
   813.966     15.08
   813.649     15.33
   813.331     17.43
   813.013     16.56
   812.696     17.71
   812.379     17.52
   812.062     17.83
   811.746     17.39
   811.428     17.29
   811.112     17.99
   810.796     17.93
   810.480     19.33
   810.164     20.40
   809.849     20.26
   809.533     23.46
   809.218     21.74
   808.903     25.67
   808.588     29.19
   808.273     34.53
   807.959     36.05
   807.644     35.78
   807.330     35.59
   807.016     38.64
   806.703     29.96
   806.389     33.48
   806.075     34.34
   805.762     34.34
   805.449     34.57
   805.137     39.66
   804.823     45.07
   804.511     45.28
   804.199     46.05
   803.886     57.86
   803.574     50.71
   803.263     49.67
   802.951     54.43
   802.639     83.60
   802.329     61.59
   802.017     59.32
   801.706     53.65
   801.396     53.65
   801.085     64.41
   800.775     60.40
   800.465     60.40
   800.155     56.55
   799.845     55.01
   799.536     52.43
   799.226     50.38
   798.917     52.82
   798.6089999999.00
   798.299     46.16
   797.9909999999.00
   797.6829999999.00
   797.373     81.20
   797.0659999999.00
   796.757     65.52
   796.4499999999.00
   796.1419999999.00
   795.834     51.49
   795.526     49.07
   795.220     41.56
   794.913     32.03
   794.606     27.82
   794.299     26.05
   793.993     23.31
   793.687     21.32
   793.380     19.88
   793.075     18.94
   792.769     21.10
   792.463     22.45
   792.158     22.61
   791.853     21.48
   791.548     18.37
   791.244     13.40
   790.938     12.30
   790.634     10.05
   790.330      9.95
   790.026      8.95
   789.722      8.31
   789.418      7.53
   789.115      8.29
   788.811      7.90
   788.508      6.69
   788.205      7.70
   787.902      7.51
   787.599      7.24
   787.297      6.93
   786.994      7.07
   786.692      6.70
   786.390      6.84
   786.088      7.13
   785.787      6.60
   785.485      8.57
   785.184     12.32
   784.883     16.06
   784.582     21.45
   784.281     24.21
   783.980     23.12
   783.680     18.49
   783.379     13.72
   783.080     10.28
   782.779      9.33
   782.479     11.62
   782.180     13.10
   781.881     13.95
   781.581     12.56
   781.282     10.80
   780.983      7.94
   780.684      7.33
   780.386      8.20
   780.088      7.99
   779.789      9.51
   779.491      9.54
   779.194      8.17
   778.896      7.57
   778.598      7.70
   778.301      6.43
   778.004      6.89
   777.707      6.78
   777.410      6.28
   777.113      8.16
   776.817      5.79
   776.520      6.03
   776.224      6.65
   775.928      6.77
   775.632      6.58
   775.336      7.46
   775.041      6.63
   774.745      6.57
   774.450      7.02
   774.156      6.21
   773.861      6.22
   773.566      6.90
   773.272      6.18
   772.978      6.28
   772.683      6.88
   772.389      6.92
   772.096      6.65
   771.802      7.08
   771.509      7.33
   771.215      8.38
   770.922      8.01
   770.629      7.14
   770.336      6.88
   770.043      7.21
   769.751      7.81
   769.458      7.54
   769.166      7.15
   768.875      6.84
   768.583      5.87
   768.291      7.41
   768.000      7.24
   767.708      7.13
   767.417      7.31
   767.126      7.55
   766.835      7.17
   766.544      7.16
   766.255      7.57
   765.964      6.91
   765.674      7.26
   765.384      6.99
   765.094      7.96
   764.804      7.78
   764.515      7.57
   764.225      8.59
   763.936      8.98
   763.647      8.48
   763.358      9.03
   763.069      9.76
   762.781      9.66
   762.493     11.84
   762.204     14.34
   761.917     17.20
   761.629     19.71
   761.341     20.94
   761.053     20.18
   760.766     19.48
   760.479     23.90
   760.192     30.64
   759.905     33.05
   759.618     36.47
   759.332     38.67
   759.045     30.27
   758.759     22.46
   758.473     14.85
   758.187     12.09
   757.901      8.78
   757.616      9.10
   757.330      8.49
   757.045      8.72
   756.760      9.28
   756.475      9.06
   756.190      9.48
   755.906      9.42
   755.621      9.97
   755.336      9.34
   755.053      9.83
   754.769     10.21
   754.484     11.65
   754.201     12.28
   753.917     14.15
   753.634     15.92
   753.351     21.25
   753.068     26.53
   752.785     30.83
   752.503     38.52
   752.220     37.40
   751.937     38.07
   751.656     33.36
   751.373     25.40
   751.091     17.39
   750.810     13.40
   750.528     11.39
   750.247      9.84
   749.965     10.21
   749.684     10.01
   749.403      9.26
   749.123     10.37
   748.842      9.86
   748.562     10.19
   748.281      9.62
   748.001      9.72
   747.720      9.78
   747.441      9.47
   747.161     11.14
   746.881     10.32
   746.603     10.19
   746.323     11.18
   746.044     10.20
   745.765     11.11
   745.486      9.87
   745.208     10.60
   744.929     10.77
   744.651     10.72
   744.373     11.21
   744.094     11.56
   743.817     11.57
   743.539     12.30
   743.262     12.70
   742.984     12.66
   742.707     11.64
   742.430     11.70
   742.153     11.97
   741.876     13.45
   741.600     13.82
   741.324     12.36
   741.047     12.43
   740.771     13.44
   740.495     13.60
   740.219     13.28
   739.944     14.03
   739.668     13.38
   739.393     15.09
   739.117     15.16
   738.843     14.78
   738.568     14.54
   738.293     15.44
   738.019     15.19
   737.744     15.36
   737.469     14.85
   737.196     15.46
   736.922     16.13
   736.647     15.55
   736.374     16.72
   736.100     18.75
   735.827     19.65
   735.554     18.64
   735.281     17.85
   735.008     17.91
   734.736     20.17
   734.463     18.86
   734.190     20.06
   733.918     20.93
   733.646     19.31
   733.374     20.68
   733.102     22.80
   732.830     21.41
   732.559     22.46
   732.288     22.87
   732.016     25.31
   731.745     24.47
   731.475     24.73
   731.203     22.57
   730.933     25.40
   730.662     27.14
   730.392     25.88
   730.121     27.70
   729.852     31.26
   729.582     33.66
   729.312     31.68
   729.042     36.75
   728.773     34.62
   728.504     37.10
   728.235     34.36
   727.966     43.55
   727.697     43.60
   727.428     43.19
   727.160     43.83
   726.891     40.92
   726.623     54.43
   726.355     45.82
   726.087     53.98
   725.819     62.69
   725.5529999999.00
   725.283     52.14
   725.017     57.86
   724.750     62.24
   724.482     49.67
   724.215     81.20
   723.949     49.14
   723.6829999999.00
   723.416     60.79
   723.149     46.40
   722.8839999999.00
   722.617     56.02
   722.3519999999.00
   722.0859999999.00
   721.820     51.49
   721.554     71.90
   721.2899999999.00
   721.024     75.33
   720.759     60.40
   720.494     68.85
   720.2299999999.00
   719.9659999999.00
   719.7009999999.00
   719.4379999999.00
   719.1729999999.00
   718.9079999999.00
   718.6449999999.00
   718.3809999999.00
   718.1179999999.00
   717.8549999999.00
   717.590     71.42
   717.327     66.43
   717.064     55.63
   716.802     45.94
   716.538     40.31
   716.276     32.55
   716.014     34.42
   715.751     28.53
   715.490     27.93
   715.228     23.05
   714.965     22.08
   714.704     19.68
   714.443     19.06
   714.181     16.52
   713.920     15.25
   713.659     14.17
   713.398     12.66
   713.137     11.66
   712.876     12.68
   712.616     10.80
   712.356     10.97
   712.095     10.28
   711.835      9.42
   711.575      9.81
   711.315      8.92
   711.055      8.05
   710.797      7.52
   710.537      7.70
   710.277      7.64
   710.019      7.15
   709.760      8.04
   709.501      8.10
   709.242      7.01
   708.983      6.51
   708.725      7.46
   708.467      6.61
   708.209      6.75
   707.951      6.58
   707.693      7.01
   707.435      5.93
   707.178      5.80
   706.920      5.67
   706.663      6.75
   706.406      6.00
   706.149      6.33
   705.892      6.36
   705.635      6.66
   705.379      7.13
   705.122      6.58
   704.866      6.34
   704.610      7.49
   704.354      7.54
   704.098     10.22
   703.843     12.73
   703.587     14.74
   703.331     13.92
   703.076     12.95
   702.821      9.99
   702.565      8.39
   702.311      7.36
   702.056      7.70
   701.802      8.74
   701.547      9.69
   701.293     12.45
   701.038     15.23
   700.785     18.32
   700.530     18.64
   700.277     15.56
   700.023     13.95
   699.770     10.89
   699.516      9.46
   699.263      9.24
   699.010      8.59
   698.756      9.26
   698.504      8.49
   698.251      9.31
   697.999     10.06
   697.746     10.62
   697.494     10.92
   697.242     13.25
   696.990     14.04
   696.738     16.55
   696.486     21.36
   696.235     24.66
   695.983     28.85
   695.732     31.41
   695.481     33.26
   695.230     34.86
   694.979     42.97
   694.728     41.68
   694.478     38.19
   694.227     36.10
   693.977     29.29
   693.726     22.28
   693.476     19.41
   693.226     14.46
   692.977     14.72
   692.727     12.83
   692.478     12.58
   692.228     11.87
   691.978     10.90
   691.730     10.06
   691.480     10.81
   691.231     11.68
   690.983     13.01
   690.734     14.57
   690.486     17.68
   690.237     18.84
   689.989     16.82
   689.740     16.33
   689.493     13.88
   689.245     12.12
   688.997     13.15
   688.750     12.62
   688.503     12.09
   688.255     12.36
   688.008     13.00
   687.761     13.77
   687.514     14.58
   687.267     14.80
   687.021     15.34
   686.774     16.50
   686.528     17.26
   686.282     18.82
   686.035     19.35
   685.790     18.42
   685.544     21.09
   685.298     21.67
   685.053     24.79
   684.807     26.42
   684.562     28.17
   684.317     30.36
   684.072     37.99
   683.827     33.66
   683.582     41.64
   683.338     42.84
   683.093     38.13
   682.849     57.26
   682.604     40.27
   682.360     50.30
   682.116     44.91
   681.873     50.06
   681.628     61.18
   681.385     56.02
   681.142     61.18
   680.898     57.86
   680.655     48.85
   680.412     56.15
   680.169    109.79
   679.927     50.80
   679.441     41.03
   679.198     33.68
   678.957     29.44
   678.714     25.92
   678.472     20.91
   678.230     18.49
   677.988     16.54
   677.746     14.49
   677.505     13.88
   677.264     14.83
   677.022     14.36
   676.782     17.98
   676.541     21.00
   676.299     26.87
ENDDATA           8193
ENDSUBENT         8203
ENDENTRY            10
