ENTRY            F0800   20070126   20070320   20070315       F026
SUBENT        F0800001   20070126   20070320   20070315       F026
BIB                 10         16
TITLE      Analog states of 140La levels.
AUTHOR     (M.Lamehi-Rachti,Y.Cassagnou,P.Foissel,C.Levi,W.Mittig,
           L.Papineau,G.M.Temmer)
INSTITUTE  (2FR SAC,1USARUT)
REFERENCE  (J,NP/A,202,609,1973)
FACILITY   (VDGT,2FR SAC)
DETECTOR   (SIBAR)2 mm thick surface-barrier detectors at 90, 125,
           141 and 160 degr.
MONITOR    (57-LA-139(P,EL)57-LA-139,,DA)
SAMPLE     The targets were prepared by vacuum evaporation of
           lanthanum oxides (La2O3). To get a good resolution,
           the thickness of the target was limited to about 150
           mu-g/cm2, evaporated onto 25 mu-g/cm2 carbon backings.
ERR-ANALYS (DATA-ERR)Errors in the absolute cross section values
           (ERR-DIG)Digitizing error
HISTORY    (20061215C)
ENDBIB              16
COMMON               3          3
EN-NRM     DATA-ERR   EN-RSL
MEV        PER-CENT   KEV
 6.         10.        20.
ENDCOMMON            3
ENDSUBENT           23
SUBENT        F0800002   20070126   20070320   20070315       F026
BIB                  3          3
REACTION   (57-LA-139(P,EL)57-LA-139,,DA)
ERR-ANALYS (EN-ERR-DIG)Digitizing error
STATUS     (CURVE)Fig.2
ENDBIB               3
COMMON               2          3
EN-ERR-DIG ERR-DIG
MEV        MB/SR
 0.0031     0.104
ENDCOMMON            3
DATA                 3        518
ANG        EN         DATA
ADEG       MEV        MB/SR
 90.000     9.4272     119.07
 90.000     9.5254     112.68
 90.000     9.6190     108.23
 90.000     9.6480     106.69
 90.000     9.6659     104.59
 90.000     9.6858     104.92
 90.000     9.6916     101.51
 90.000     9.7105     101.35
 90.000     9.7419     97.792
 90.000     9.7663     98.282
 90.000     9.7886     96.579
 90.000     9.7976     95.205
 90.000     9.8242     95.531
 90.000     9.8443     94.156
 90.000     9.8623     90.675
 90.000     9.8867     91.406
 90.000     9.9023     89.949
 90.000     9.9102     88.653
 90.000     9.9224     88.898
 90.000     9.9359     86.469
 90.000     9.9603     86.553
 90.000     9.9804     84.854
 90.000     10.016     86.072
 90.000     10.040     85.264
 90.000     10.065     85.509
 90.000     10.091     82.435
 90.000     10.106     81.460
 90.000     10.116     80.573
 90.000     10.145     80.090
 90.000     10.169     79.040
 90.000     10.189     77.985
 90.000     10.201     76.369
 90.000     10.223     77.586
 90.000     10.239     78.154
 90.000     10.259     74.106
 90.000     10.277     70.301
 90.000     10.299     72.004
 90.000     10.317     73.463
 90.000     10.334     75.895
 90.000     10.359     73.143
 90.000     10.367     73.390
 90.000     10.370     71.931
 90.000     10.395     69.743
 90.000     10.410     68.126
 90.000     10.439     67.642
 90.000     10.468     66.592
 90.000     10.484     64.325
 90.000     10.508     64.895
 90.000     10.526     64.896
 90.000     10.550     64.494
 90.000     10.571     63.604
 90.000     10.588     62.715
 90.000     10.611     62.069
 90.000     10.631     61.504
 90.000     10.651     61.830
 90.000     10.675     62.642
 90.000     10.688     60.213
 90.000     10.711     60.782
 90.000     10.771     57.791
 90.000     10.793     57.226
 90.000     10.809     56.660
 90.000     10.838     57.230
 90.000     10.869     54.155
 90.000     10.915     55.536
 90.000     10.936     55.539
 90.000     10.955     54.080
 90.000     10.971     54.731
 90.000     10.989     53.275
 90.000     11.001     53.118
 90.000     11.011     50.685
 90.000     11.033     49.958
 90.000     11.067     48.341
 90.000     11.091     49.072
 90.000     11.109     50.613
 90.000     11.129     48.185
 90.000     11.151     49.078
 90.000     11.173     49.161
 90.000     11.191     47.623
 90.000     11.214     47.625
 90.000     11.231     47.951
 90.000     11.265     47.468
 90.000     11.279     46.009
 90.000     11.294     46.985
 90.000     11.314     45.853
 90.000     11.336     44.964
 90.000     11.367     46.019
 90.000     11.374     44.641
 90.000     11.389     44.077
 90.000     11.407     44.646
 90.000     11.449     42.301
 90.000     11.469     43.275
 90.000     11.494     41.981
 90.000     11.512     43.441
 90.000     11.527     42.713
 90.000     11.552     42.958
 90.000     11.576     41.989
 90.000     11.594     40.937
 90.000     11.636     41.508
 90.000     11.654     42.077
 90.000     11.672     40.377
 90.000     11.681     39.487
 90.000     11.710     38.356
 90.000     11.729     39.573
 90.000     11.752     39.332
 90.000     11.774     39.658
 90.000     11.792     38.932
 90.000     11.804     37.391
 90.000     11.827     36.666
 90.000     11.852     37.964
 90.000     11.887     37.805
 90.000     11.892     35.860
 90.000     11.914     36.593
 90.000     11.927     35.622
 90.000     11.945     36.919
 90.000     11.974     34.573
 90.000     11.990     35.871
 90.000     12.012     38.141
 90.000     12.079     33.530
 90.000     12.099     33.856
 90.000     12.121     33.858
 90.000     12.150     34.184
 125.00     9.0242     53.759
 125.00     9.1179     52.268
 125.00     9.1379     52.154
 125.00     9.1624     51.983
 125.00     9.1780     51.437
 125.00     9.1823     52.245
 125.00     9.1960     50.835
 125.00     9.2204     50.721
 125.00     9.2384     50.003
 125.00     9.2762     49.487
 125.00     9.3008     49.028
 125.00     9.3164     48.713
 125.00     9.3365     48.196
 125.00     9.4146     46.849
 125.00     9.5129     44.238
 125.00     9.6177     42.863
 125.00     9.6379     41.686
 125.00     9.6695     39.761
 125.00     9.6917     39.532
 125.00     9.7184     39.447
 125.00     9.7341     38.931
 125.00     9.7500     37.322
 125.00     9.7767     37.065
 125.00     9.7949     35.571
 125.00     9.8151     34.681
 125.00     9.8331     33.303
 125.00     9.8535     31.838
 125.00     9.8947     36.178
 125.00     9.9117     39.311
 125.00     9.9319     38.479
 125.00     9.9539     39.141
 125.00     9.9741     38.452
 125.00     10.005     37.993
 125.00     10.030     38.138
 125.00     10.052     37.392
 125.00     10.059     36.875
 125.00     10.070     35.754
 125.00     10.088     35.065
 125.00     10.104     34.032
 125.00     10.133     35.355
 125.00     10.148     36.878
 125.00     10.170     37.540
 125.00     10.183     36.765
 125.00     10.205     36.794
 125.00     10.226     36.134
 125.00     10.248     35.532
 125.00     10.257     35.219
 125.00     10.268     34.413
 125.00     10.273     33.665
 125.00     10.291     33.378
 125.00     10.355     33.927
 125.00     10.395     32.376
 125.00     10.401     31.916
 125.00     10.412     29.733
 125.00     10.429     29.274
 125.00     10.472     28.529
 125.00     10.490     27.898
 125.00     10.514     28.588
 125.00     10.534     28.646
 125.00     10.550     27.929
 125.00     10.570     26.838
 125.00     10.616     27.472
 125.00     10.634     28.248
 125.00     10.651     29.800
 125.00     10.671     30.692
 125.00     10.709     30.464
 125.00     10.749     29.689
 125.00     10.771     29.403
 125.00     10.794     29.145
 125.00     10.814     28.974
 125.00     10.829     28.457
 125.00     10.854     28.402
 125.00     10.872     26.591
 125.00     10.914     26.190
 125.00     10.930     25.530
 125.00     10.952     25.904
 125.00     10.970     25.905
 125.00     10.994     26.021
 125.00     11.010     25.562
 125.00     11.032     25.419
 125.00     11.047     27.000
 125.00     11.072     25.507
 125.00     11.090     25.824
 125.00     11.110     26.428
 125.00     11.132     25.538
 125.00     11.152     25.797
 125.00     11.172     25.482
 125.00     11.188     24.764
 125.00     11.210     24.449
 125.00     11.235     24.622
 125.00     11.246     23.876
 125.00     11.268     24.078
 125.00     11.288     23.992
 125.00     11.308     23.792
 125.00     11.326     22.959
 125.00     11.353     23.162
 125.00     11.368     23.708
 125.00     11.388     23.220
 125.00     11.408     23.710
 125.00     11.448     22.677
 125.00     11.466     22.735
 125.00     11.491     22.334
 125.00     11.508     22.938
 125.00     11.530     22.853
 125.00     11.553     22.422
 125.00     11.573     22.165
 125.00     11.591     21.102
 125.00     11.611     21.649
 125.00     11.648     21.679
 125.00     11.659     21.161
 125.00     11.673     20.416
 125.00     11.695     20.417
 125.00     11.711     19.325
 125.00     11.729     20.102
 125.00     11.749     20.189
 125.00     11.773     20.046
 125.00     11.781     20.277
 125.00     11.793     19.702
 125.00     11.831     19.387
 125.00     11.849     19.043
 125.00     11.871     18.929
 125.00     11.889     19.418
 125.00     11.911     18.787
 125.00     11.938     19.219
 125.00     11.953     19.421
 125.00     11.978     19.423
 125.00     11.994     18.301
 125.00     12.014     18.303
 125.00     12.072     16.179
 125.00     12.098     16.496
 125.00     12.121     16.497
 125.00     12.136     16.756
 141.00     9.0214     42.727
 141.00     9.1107     41.320
 141.00     9.1307     41.090
 141.00     9.1573     41.149
 141.00     9.1774     40.804
 141.00     9.1932     40.056
 141.00     9.2153     40.201
 141.00     9.2334     39.166
 141.00     9.2556     39.138
 141.00     9.2712     38.994
 141.00     9.2935     38.707
 141.00     9.3114     38.190
 141.00     9.3359     37.817
 141.00     9.4097     35.776
 141.00     9.5124     33.822
 141.00     9.6037     32.818
 141.00     9.6283     32.301
 141.00     9.6686     30.892
 141.00     9.7065     30.490
 141.00     9.7290     29.282
 141.00     9.7469     28.880
 141.00     9.7689     29.716
 141.00     9.7891     28.939
 141.00     9.8090     29.055
 141.00     9.8336     28.567
 141.00     9.8558     28.596
 141.00     9.8713     28.885
 141.00     9.8935     28.684
 141.00     9.9070     28.311
 141.00     9.9296     26.584
 141.00     9.9475     26.009
 141.00     9.9743     25.636
 141.00     10.005     25.666
 141.00     10.027     26.156
 141.00     10.048     25.725
 141.00     10.070     24.949
 141.00     10.106     24.432
 141.00     10.130     24.750
 141.00     10.150     23.858
 141.00     10.168     23.485
 141.00     10.184     22.967
 141.00     10.210     22.738
 141.00     10.224     22.249
 141.00     10.236     21.847
 141.00     10.242     21.101
 141.00     10.264     20.698
 141.00     10.274     20.495
 141.00     10.294     20.178
 141.00     10.347     19.951
 141.00     10.365     18.368
 141.00     10.385     18.052
 141.00     10.403     16.786
 141.00     10.425     15.865
 141.00     10.465     15.637
 141.00     10.490     15.955
 141.00     10.503     16.445
 141.00     10.519     16.733
 141.00     10.541     16.792
 141.00     10.559     16.447
 141.00     10.581     16.304
 141.00     10.605     16.449
 141.00     10.627     17.774
 141.00     10.644     19.244
 141.00     10.660     19.849
 141.00     10.682     19.504
 141.00     10.704     19.505
 141.00     10.722     18.729
 141.00     10.738     18.211
 141.00     10.758     18.097
 141.00     10.780     17.522
 141.00     10.823     17.121
 141.00     10.847     17.035
 141.00     10.879     15.885
 141.00     10.899     15.193
 141.00     10.901     14.216
 141.00     10.928     14.102
 141.00     10.948     14.822
 141.00     10.968     15.226
 141.00     10.979     15.688
 141.00     11.021     15.517
 141.00     11.036     15.892
 141.00     11.045     16.151
 141.00     11.061     15.346
 141.00     11.083     15.145
 141.00     11.101     16.010
 141.00     11.128     15.147
 141.00     11.148     15.205
 141.00     11.161     14.688
 141.00     11.181     14.285
 141.00     11.205     14.459
 141.00     11.219     14.114
 141.00     11.239     13.712
 141.00     11.263     13.799
 141.00     11.281     13.397
 141.00     11.299     13.225
 141.00     11.323     13.284
 141.00     11.346     13.026
 141.00     11.366     13.170
 141.00     11.401     12.855
 141.00     11.439     12.166
 141.00     11.462     11.908
 141.00     11.479     11.476
 141.00     11.513     11.535
 141.00     11.540     11.105
 141.00     11.557     10.904
 141.00     11.577     10.559
 141.00     11.604     10.560
 141.00     11.622     10.705
 141.00     11.644     10.850
 141.00     11.660     9.9870
 141.00     11.682     9.7288
 141.00     11.700     9.5280
 141.00     11.724     9.8746
 141.00     11.742     10.019
 141.00     11.760     9.6169
 141.00     11.789     9.4454
 141.00     11.806     9.7917
 141.00     11.829     9.2744
 141.00     11.849     8.9009
 141.00     11.867     8.7577
 141.00     11.896     8.6726
 141.00     11.922     8.9041
 141.00     11.949     8.8188
 141.00     11.984     8.6188
 141.00     11.992     8.0708
 141.00     12.007     8.0151
 141.00     12.062     7.2113
 141.00     12.085     7.4714
 141.00     12.109     7.7028
 141.00     12.133     7.7326
 160.00     9.0297     33.791
 160.00     9.1123     31.970
 160.00     9.1367     31.971
 160.00     9.1634     31.971
 160.00     9.1746     31.489
 160.00     9.1902     31.007
 160.00     9.2191     31.008
 160.00     9.2392     30.365
 160.00     9.2569     30.499
 160.00     9.2748     29.883
 160.00     9.2905     29.106
 160.00     9.3127     29.375
 160.00     9.3328     28.920
 160.00     9.3442     27.311
 160.00     9.4109     26.831
 160.00     9.5111     25.734
 160.00     9.6089     25.067
 160.00     9.6335     24.558
 160.00     9.6758     23.809
 160.00     9.6958     23.997
 160.00     9.7090     24.426
 160.00     9.7292     23.408
 160.00     9.7580     23.730
 160.00     9.7756     24.937
 160.00     9.8000     24.804
 160.00     9.8109     25.850
 160.00     9.8353     26.172
 160.00     9.8555     25.100
 160.00     9.8691     23.465
 160.00     9.8858     17.729
 160.00     9.9063     14.727
 160.00     9.9288     13.574
 160.00     9.9509     14.084
 160.00     9.9730     14.514
 160.00     10.006     15.078
 160.00     10.024     15.561
 160.00     10.044     15.964
 160.00     10.070     16.259
 160.00     10.088     16.823
 160.00     10.113     16.877
 160.00     10.124     14.920
 160.00     10.147     11.623
 160.00     10.165     11.168
 160.00     10.187     11.356
 160.00     10.209     11.411
 160.00     10.225     11.518
 160.00     10.249     11.412
 160.00     10.265     10.903
 160.00     10.298     10.931
 160.00     10.325     10.985
 160.00     10.347     10.047
 160.00     10.365     9.3775
 160.00     10.387     9.2173
 160.00     10.403     8.1989
 160.00     10.432     7.9316
 160.00     10.465     8.5760
 160.00     10.485     8.9787
 160.00     10.505     9.7031
 160.00     10.520     10.132
 160.00     10.540     10.079
 160.00     10.567     10.080
 160.00     10.582     10.375
 160.00     10.604     11.368
 160.00     10.626     12.843
 160.00     10.644     13.514
 160.00     10.668     13.649
 160.00     10.682     13.247
 160.00     10.706     13.087
 160.00     10.746     12.069
 160.00     10.767     11.721
 160.00     10.784     11.400
 160.00     10.802     10.971
 160.00     10.827     10.811
 160.00     10.849     10.919
 160.00     10.865     9.4718
 160.00     10.885     9.8477
 160.00     10.905     9.5266
 160.00     10.920     10.439
 160.00     10.947     10.868
 160.00     10.964     11.351
 160.00     10.982     11.915
 160.00     11.002     11.674
 160.00     11.026     11.836
 160.00     11.040     12.184
 160.00     11.064     11.032
 160.00     11.091     11.140
 160.00     11.102     11.328
 160.00     11.122     10.739
 160.00     11.151     10.874
 160.00     11.167     10.740
 160.00     11.186     10.902
 160.00     11.200     10.259
 160.00     11.231     10.260
 160.00     11.238     9.7771
 160.00     11.267     9.8852
 160.00     11.287     9.8857
 160.00     11.302     9.3232
 160.00     11.325     8.6804
 160.00     11.342     8.5736
 160.00     11.367     8.7620
 160.00     11.385     8.8429
 160.00     11.407     8.7095
 160.00     11.445     7.9867
 160.00     11.463     7.8799
 160.00     11.483     7.8805
 160.00     11.507     7.8543
 160.00     11.520     7.6670
 160.00     11.545     7.7750
 160.00     11.565     7.8291
 160.00     11.585     7.6420
 160.00     11.607     7.8571
 160.00     11.629     7.9114
 160.00     11.647     7.9655
 160.00     11.660     7.4297
 160.00     11.676     7.6446
 160.00     11.700     7.5916
 160.00     11.725     7.6191
 160.00     11.742     7.4588
 160.00     11.762     7.6202
 160.00     11.783     7.0577
 160.00     11.807     7.4337
 160.00     11.827     6.7641
 160.00     11.843     6.5500
 160.00     11.867     6.1486
 160.00     11.880     6.6851
 160.00     11.909     6.7664
 160.00     11.927     6.9277
 160.00     11.949     7.1964
 160.00     11.971     6.8217
 160.00     11.989     6.9562
 160.00     12.009     7.0908
 160.00     12.067     6.8512
 160.00     12.089     7.1199
 160.00     12.107     6.9327
 160.00     12.131     7.0942
ENDDATA            520
ENDSUBENT          532
SUBENT        F0800003   20070126   20070320   20070315       F026
BIB                  3          4
REACTION   (57-LA-139(P,INL)57-LA-139,PAR,DA)
ERR-ANALYS (EN-ERR-DIG)Digitizing error
           (DATA-ERR1)Error from the graphic bars
STATUS     (CURVE)Fig.3
ENDBIB               4
COMMON               3          3
E-LVL      EN-ERR-DIG ERR-DIG
KEV        MEV        MU-B/SR
 166.       0.0012     0.099
ENDCOMMON            3
DATA                 4        316
ANG        EN         DATA       DATA-ERR1
ADEG       MEV        MU-B/SR    MU-B/SR
 125.00     9.8225     13.525
 125.00     9.8430     65.557
 125.00     9.8676     118.40     8.9431
 125.00     9.8879     102.14
 125.00     9.9087     93.739
 125.00     9.9283     83.170
 125.00     9.9450     53.630
 125.00     9.9674     57.423
 125.00     10.004     60.132
 125.00     10.037     41.161
 125.00     10.053     31.405
 125.00     10.071     29.778
 125.00     10.110     36.552
 125.00     10.129     57.147
 125.00     10.145     70.426
 125.00     10.176     66.360
 125.00     10.190     47.931
 125.00     10.206     32.213
 125.00     10.284     42.779
 125.00     10.308     48.199
 125.00     10.327     42.778
 125.00     10.347     32.479
 125.00     10.367     11.881
 125.00     10.402     52.532
 125.00     10.443     81.256
 125.00     10.468     66.350
 125.00     10.484     60.117
 125.00     10.527     46.024
 125.00     10.549     80.441
 125.00     10.568     124.88     8.6721
 125.00     10.592     133.56     10.840
 125.00     10.610     93.176
 125.00     10.627     68.243
 125.00     10.643     23.256
 125.00     10.665     18.106
 125.00     10.688     26.236
 125.00     10.706     41.140
 125.00     10.788     14.580
 125.00     10.807     23.250
 125.00     10.816     39.240
 125.00     10.839     40.052
 125.00     10.854     46.287
 125.00     10.861     62.816
 125.00     10.888     51.704
 125.00     10.906     48.180
 125.00     10.921     29.751
 125.00     10.940     25.687
 125.00     10.965     8.8832
 125.00     10.986     29.750
 125.00     11.025     40.589
 125.00     11.066     49.801
 125.00     11.085     26.766
 125.00     11.145     11.049
 125.00     11.229     22.425
 125.00     11.259     27.573
 125.00     11.276     27.302
 125.00     11.295     37.872
 125.00     11.302     47.355
 125.00     11.316     65.510
 125.00     11.329     33.262
 125.00     11.345     28.926
 125.00     11.367     21.337
 125.00     11.402     15.916
 125.00     11.445     18.083
 125.00     11.461     29.193
 125.00     11.480     41.388
 125.00     11.504     48.975
 125.00     11.529     54.124
 125.00     11.567     38.675
 125.00     11.577     24.313
 125.00     11.588     9.6773
 125.00     11.604     20.788
 125.00     11.631     22.413
 125.00     11.647     33.253
 125.00     11.662     26.747
 125.00     11.687     38.672
 125.00     11.706     48.969
 125.00     11.735     48.968
 125.00     11.749     46.529
 125.00     11.771     32.165
 125.00     11.794     30.809
 125.00     11.833     29.453
 125.00     11.867     32.975
 125.00     11.878     34.600
 125.00     11.889     47.339
 125.00     11.892     60.617
 125.00     11.929     60.886
 125.00     11.949     43.000
 125.00     11.971     32.159
 125.00     11.990     22.673
 125.00     12.010     58.445     8.6721
 125.00     12.069     43.809
 125.00     12.092     40.827
 125.00     12.110     45.976
 125.00     12.131     59.796
 141.00     9.6671     13.512
 141.00     9.7100     13.513
 141.00     9.7385     13.249
 141.00     9.7516     29.650
 141.00     9.7716     18.277
 141.00     9.8124     29.654
 141.00     9.8220     34.945
 141.00     9.8311     36.266
 141.00     9.8506     107.96
 141.00     9.8689     149.50     11.640
 141.00     9.8934     119.60
 141.00     9.9323     93.149
 141.00     9.9731     105.58
 141.00     9.9955     90.770
 141.00     10.010     73.575
 141.00     10.028     65.110
 141.00     10.049     21.195
 141.00     10.071     25.957
 141.00     10.112     62.202
 141.00     10.128     79.398
 141.00     10.149     82.839
 141.00     10.169     33.632
 141.00     10.185     15.114
 141.00     10.208     26.226
 141.00     10.224     29.930
 141.00     10.251     51.360
 141.00     10.271     34.958
 141.00     10.292     31.520
 141.00     10.310     36.811
 141.00     10.347     38.929
 141.00     10.364     21.468
 141.00     10.387     23.850
 141.00     10.408     28.878
 141.00     10.428     54.010
 141.00     10.473     106.13
 141.00     10.489     74.647
 141.00     10.508     64.595
 141.00     10.532     63.008
 141.00     10.551     110.36
 141.00     10.577     118.30
 141.00     10.591     137.88     9.2592
 141.00     10.612     111.69
 141.00     10.630     59.836
 141.00     10.645     31.795
 141.00     10.687     31.796
 141.00     10.698     35.765
 141.00     10.707     16.980
 141.00     10.712     15.658
 141.00     10.726     1.6383
 141.00     10.769     35.766
 141.00     10.792     35.503
 141.00     10.819     37.092
 141.00     10.834     42.117
 141.00     10.846     50.847
 141.00     10.869     51.907
 141.00     10.885     67.251
 141.00     10.908     48.204
 141.00     10.930     26.777
 141.00     10.949     14.872
 141.00     10.967     61.434
 141.00     10.975     80.484
 141.00     10.984     56.144
 141.00     10.990     37.096
 141.00     11.004     31.541
 141.00     11.065     27.839
 141.00     11.096     24.665
 141.00     11.105     12.233
 141.00     11.117     59.056
 141.00     11.124     45.565
 141.00     11.135     36.307
 141.00     11.142     20.965
 141.00     11.168     33.928
 141.00     11.185     45.832
 141.00     11.249     34.193
 141.00     11.271     25.728
 141.00     11.285     52.184
 141.00     11.306     39.486
 141.00     11.324     21.497
 141.00     11.349     21.762
 141.00     11.406     12.769
 141.00     11.419     41.604
 141.00     11.433     34.462
 141.00     11.445     29.173
 141.00     11.467     24.412
 141.00     11.485     38.433
 141.00     11.504     60.391
 141.00     11.528     36.318
 141.00     11.547     27.588
 141.00     11.569     20.182
 141.00     11.592     36.055
 141.00     11.613     30.502
 141.00     11.628     47.961
 141.00     11.646     56.162
 141.00     11.669     58.015
 141.00     11.687     43.201
 141.00     11.710     61.985
 141.00     11.728     54.578
 141.00     11.753     57.489
 141.00     11.773     53.786
 141.00     11.794     32.093
 141.00     11.821     24.423
 141.00     11.832     40.031
 141.00     11.865     62.783
 141.00     11.892     62.784
 141.00     11.908     65.430     7.9365
 141.00     11.928     45.854
 141.00     11.953     42.944
 141.00     11.967     53.262
 141.00     11.987     61.464
 141.00     12.008     54.851
 141.00     12.073     28.133
 141.00     12.108     32.367
 141.00     12.112     61.732
 141.00     12.130     65.965
 160.00     9.7745     16.293
 160.00     9.7833     20.217
 160.00     9.7949     24.868
 160.00     9.8153     26.340
 160.00     9.8236     36.635
 160.00     9.8328     50.363
 160.00     9.8435     84.188
 160.00     9.8517     117.77
 160.00     9.8718     215.56     11.520
 160.00     9.8923     188.36
 160.00     9.9169     160.66
 160.00     9.9374     136.89
 160.00     9.9518     88.851
 160.00     10.007     52.088
 160.00     10.032     21.943
 160.00     10.050     40.326
 160.00     10.111     36.407
 160.00     10.122     43.758
 160.00     10.135     49.642
 160.00     10.144     66.555
 160.00     10.156     84.938
 160.00     10.172     66.802
 160.00     10.213     47.196
 160.00     10.221     34.205
 160.00     10.232     12.393
 160.00     10.252     10.433
 160.00     10.279     12.395
 160.00     10.295     16.808
 160.00     10.309     33.475
 160.00     10.334     25.878
 160.00     10.352     9.7024
 160.00     10.411     8.7247
 160.00     10.427     58.725
 160.00     10.493     68.777
 160.00     10.523     59.955
 160.00     10.578     105.06     11.274
 160.00     10.595     92.066
 160.00     10.617     72.460
 160.00     10.636     59.470
 160.00     10.652     32.755
 160.00     10.672     7.5112
 160.00     10.691     25.649
 160.00     10.752     16.829
 160.00     10.769     13.399
 160.00     10.782     35.700
 160.00     10.809     32.763
 160.00     10.834     32.519
 160.00     10.852     41.833
 160.00     10.872     39.873
 160.00     10.889     57.766
 160.00     10.909     75.414
 160.00     10.946     50.906
 160.00     10.952     39.876
 160.00     10.968     46.005
 160.00     10.991     44.291
 160.00     11.011     36.939
 160.00     11.028     32.037
 160.00     11.048     44.783
 160.00     11.077     42.825
 160.00     11.091     38.903
 160.00     11.118     13.167
 160.00     11.148     13.906
 160.00     11.170     21.260
 160.00     11.207     28.124
 160.00     11.232     25.429
 160.00     11.245     2.6328
 160.00     11.248     11.214
 160.00     11.309     24.697
 160.00     11.314     42.097
 160.00     11.329     37.932
 160.00     11.332     39.649
 160.00     11.344     23.965
 160.00     11.356     11.219
 160.00     11.389     9.9952
 160.00     11.405     6.0743
 160.00     11.472     12.695
 160.00     11.509     24.707
 160.00     11.515     30.098
 160.00     11.523     35.737
 160.00     11.550     42.601
 160.00     11.570     28.876
 160.00     11.599     24.220
 160.00     11.634     53.879
 160.00     11.643     73.731
 160.00     11.656     69.811
 160.00     11.699     75.205
 160.00     11.713     66.137
 160.00     11.719     54.862
 160.00     11.727     39.668
 160.00     11.754     39.914
 160.00     11.772     33.542
 160.00     11.794     35.751
 160.00     11.815     60.504
 160.00     11.856     53.889
 160.00     11.874     39.922
 160.00     11.894     47.277
 160.00     11.980     82.076
 160.00     11.991     84.528     7.3529
 160.00     12.013     82.323
 160.00     12.022     66.639
 160.00     12.029     58.797
 160.00     12.031     54.632
 160.00     12.034     47.525
 160.00     12.064     62.477
 160.00     12.091     63.949
 160.00     12.113     63.950
 160.00     12.129     61.500
ENDDATA            318
ENDSUBENT          331
SUBENT        F0800004   20070126   20070320   20070315       F026
BIB                  3          4
REACTION   (57-LA-139(P,INL)57-LA-139,PAR,DA)
ERR-ANALYS (EN-ERR-DIG)Digitizing error
           (DATA-ERR1)Error from the graphic bars
STATUS     (CURVE)Fig.5
ENDBIB               4
COMMON               3          3
ANG        EN-ERR-DIG ERR-DIG
ADEG       MEV        MU-B/SR
 160.       0.0084     0.012
ENDCOMMON            3
DATA                 4        401
E-LVL      EN         DATA       DATA-ERR1
MEV        MEV        MU-B/SR    MU-B/SR
 1.2050     9.8193     52.690
 1.2050     9.8398     83.421
 1.2050     9.8829     74.153
 1.2050     9.9014     100.50
 1.2050     9.9261     111.23
 1.2050     9.9404     69.276
 1.2050     9.9651     82.447
 1.2050     10.002     60.984
 1.2050     10.027     82.935
 1.2050     10.043     68.789
 1.2050     10.066     61.960
 1.2050     10.099     26.838
 1.2050     10.144     13.668
 1.2050     10.162     20.009
 1.2050     10.187     54.156
 1.2050     10.199     23.424
 1.2050     10.224     18.546
 1.2050     10.242     23.425
 1.2050     10.263     9.2785
 1.2050     10.281     21.962
 1.2050     10.308     21.962
 1.2050     10.324     25.864
 1.2050     10.343     26.840
 1.2050     10.363     28.791
 1.2050     10.382     38.060
 1.2050     10.405     111.72
 1.2050     10.429     160.01
 1.2050     10.464     143.91
 1.2050     10.489     202.94
 1.2050     10.509     177.57
 1.2050     10.524     158.55
 1.2050     10.546     184.40
 1.2050     10.567     192.70
 1.2050     10.587     211.23
 1.2050     10.610     262.45
 1.2050     10.628     282.94     21.463
 1.2050     10.651     262.45
 1.2050     10.667     193.67
 1.2050     10.688     183.92
 1.2050     10.708     166.36
 1.2050     10.727     145.87
 1.2050     10.747     135.14
 1.2050     10.762     113.18
 1.2050     10.791     110.75
 1.2050     10.803     86.356
 1.2050     10.821     67.820
 1.2050     10.864     89.771
 1.2050     10.888     99.527
 1.2050     10.903     142.45
 1.2050     10.915     150.75
 1.2050     10.928     190.75
 1.2050     10.965     199.04
 1.2050     10.979     209.28
 1.2050     10.992     221.97
 1.2050     11.002     158.55
 1.2050     11.021     149.28
 1.2050     11.047     161.97
 1.2050     11.062     100.50
 1.2050     11.088     109.29
 1.2050     11.105     69.773
 1.2050     11.121     51.724
 1.2050     11.140     45.871
 1.2050     11.158     86.847
 1.2050     11.179     44.408
 1.2050     11.197     38.554
 1.2050     11.218     62.457
 1.2050     11.234     24.896
 1.2050     11.271     20.994
 1.2050     11.292     36.604
 1.2050     11.314     12.214
 1.2050     11.331     3.9212
 1.2050     11.353     1.9702
 1.2050     11.427     8.8000
 1.2050     11.450     44.898
 1.2050     11.474     26.849
 1.4050     9.8335     28.210
 1.4050     9.8582     24.786
 1.4050     9.8805     71.363
 1.4050     9.8993     20.388
 1.4050     9.9195     70.395
 1.4050     9.9320     48.340
 1.4050     9.9568     24.328
 1.4050     9.9753     10.609
 1.4050     10.018     7.1912
 1.4050     10.055     9.1641
 1.4050     10.076     17.504
 1.4050     10.103     14.081
 1.4050     10.115     3.7913
 1.4050     10.135     59.191
 1.4050     10.156     57.237
 1.4050     10.176     36.165
 1.4050     10.199     60.192
 1.4050     10.215     20.981
 1.4050     10.240     26.381
 1.4050     10.257     24.426
 1.4050     10.271     15.607
 1.4050     10.296     17.086
 1.4050     10.314     20.033
 1.4050     10.330     32.293
 1.4050     10.351     8.7702
 1.4050     10.376     38.190
 1.4050     10.412     56.340
 1.4050     10.433     67.621
 1.4050     10.472     46.065
 1.4050     10.493     58.817
 1.4050     10.513     110.29
 1.4050     10.533     119.12
 1.4050     10.558     154.43
 1.4050     10.574     139.73
 1.4050     10.597     142.18
 1.4050     10.615     206.41     18.137
 1.4050     10.638     167.69
 1.4050     10.652     111.32
 1.4050     10.671     74.071
 1.4050     10.696     82.413
 1.4050     10.710     46.633
 1.4050     10.735     44.190
 1.4050     10.760     41.257
 1.4050     10.766     25.082
 1.4050     10.797     30.974
 1.4050     10.848     12.854
 1.4050     10.873     11.391
 1.4050     10.895     52.085
 1.4050     10.911     80.032
 1.4050     10.938     68.279
 1.4050     10.954     54.549
 1.4050     10.971     42.796
 1.4050     10.991     106.04
 1.4050     11.012     101.63
 1.4050     11.034     101.64
 1.4050     11.047     78.605
 1.4050     11.063     46.748
 1.4050     11.088     65.383
 1.4050     11.102     55.584
 1.4050     11.127     53.631
 1.4050     11.164     63.447
 1.4050     11.199     88.459
 1.4050     11.223     103.66
 1.4050     11.244     61.513
 1.4050     11.263     25.734
 1.4050     11.283     83.584
 1.4050     11.301     159.57
 1.4050     11.322     121.83
 1.4050     11.346     166.45
 1.4050     11.363     155.18
 1.4050     11.381     144.89
 1.4050     11.404     153.72
 1.4050     11.439     140.50
 1.4050     11.457     153.74
 1.4050     11.476     106.69
 1.4050     11.501     89.047
 1.4050     11.519     99.348
 1.4050     11.537     115.53
 1.4050     11.560     104.75
 1.4050     11.578     129.27
 1.4050     11.597     164.08
 1.4050     11.620     107.71
 1.4050     11.638     128.80
 1.4050     11.660     126.85
 1.4050     11.677     75.379
 1.4050     11.698     81.759
 1.4050     11.712     90.097
 1.4050     11.737     82.752
 1.4050     11.757     128.84
 1.4050     11.777     147.96     13.726
 1.4050     11.814     130.33
 1.4050     11.839     128.86
 1.4050     11.854     96.516
 1.4050     11.872     87.698
 1.4050     11.891     81.331
 1.4050     11.907     57.807
 1.4050     11.936     53.895
 1.4050     11.952     65.175
 1.4050     11.971     41.651
 1.4050     11.993     69.600
 1.4050     12.030     69.612
 1.4050     12.051     82.854
 1.4050     12.071     119.63
 1.4050     12.092     99.534
 1.4050     12.111     68.168
 1.5200     9.8647     51.173
 1.5200     9.8849     89.990
 1.5200     9.9012     101.44
 1.5200     9.9257     122.35
 1.5200     9.9427     48.227
 1.5200     9.9591     60.176
 1.5200     9.9838     47.750
 1.5200     10.021     40.803
 1.5200     10.042     26.385
 1.5200     10.060     30.872
 1.5200     10.084     49.293
 1.5200     10.104     123.93
 1.5200     10.125     78.667
 1.5200     10.141     114.00
 1.5200     10.160     141.37
 1.5200     10.186     141.39
 1.5200     10.207     126.47
 1.5200     10.224     60.806
 1.5200     10.246     87.683
 1.5200     10.267     47.891
 1.5200     10.279     53.370
 1.5200     10.298     50.892
 1.5200     10.323     24.536
 1.5200     10.341     76.785
 1.5200     10.360     46.943
 1.5200     10.380     63.371
 1.5200     10.400     75.322
 1.5200     10.421     85.780
 1.5200     10.445     101.71
 1.5200     10.484     129.10
 1.5200     10.504     164.93
 1.5200     10.523     198.77
 1.5200     10.547     181.37
 1.5200     10.562     208.74
 1.5200     10.588     194.32
 1.5200     10.604     224.68
 1.5200     10.621     246.58
 1.5200     10.645     251.57
 1.5200     10.666     267.99     49.752
 1.5200     10.683     184.42
 1.5200     10.700     138.66
 1.5200     10.726     135.68
 1.5200     10.741     108.83
 1.5200     10.755     102.86
 1.5200     10.782     92.925
 1.5200     10.807     86.470
 1.5200     10.817     53.639
 1.5200     10.836     102.40
 1.5200     10.864     105.40
 1.5200     10.882     132.78
 1.5200     10.899     160.65
 1.5200     10.917     197.47
 1.5200     10.940     174.10
 1.5200     10.960     201.97
 1.5200     10.979     160.19
 1.5200     11.000     134.83
 1.5200     11.018     119.41
 1.5200     11.035     105.99
 1.5200     11.059     108.98
 1.5200     11.076     92.077
 1.5200     11.094     108.50
 1.5200     11.117     106.53
 1.5200     11.137     95.093
 1.5200     11.150     85.646
 1.5200     11.172     89.637
 1.5200     11.193     83.180
 1.5200     11.209     134.93
 1.5200     11.229     141.41
 1.5200     11.250     119.03
 1.5200     11.273     108.10
 1.5200     11.289     154.87
 1.5200     11.309     145.93
 1.5200     11.326     179.77
 1.5200     11.348     153.41
 1.5200     11.369     178.79
 1.5200     11.386     132.03
 1.5200     11.406     120.10
 1.5200     11.445     129.08
 1.5200     11.463     158.44
 1.5200     11.486     123.13
 1.5200     11.503     140.05
 1.5200     11.525     128.12
 1.5200     11.546     121.17
 1.5200     11.560     101.27
 1.5200     11.583     136.11
 1.5200     11.603     132.14
 1.5200     11.620     100.81
 1.5200     11.642     125.20
 1.5200     11.663     106.80
 1.5200     11.684     94.867
 1.5200     11.702     109.30
 1.5200     11.720     116.28
 1.5200     11.743     113.31
 1.5200     11.776     113.82
 1.5200     11.791     123.76
 1.5200     11.821     166.58
 1.5200     11.835     179.52
 1.5200     11.862     184.01
 1.5200     11.884     203.43
 1.5200     11.899     157.66
 1.5200     11.921     166.13
 1.5200     11.934     88.027
 1.5200     11.959     82.567
 1.5200     11.977     68.148
 1.5200     11.998     74.128
 1.5200     12.041     70.667
 1.5200     12.053     107.49
 1.5200     12.076     122.43
 1.5200     12.098     108.01
 1.5200     12.113     127.92
 1.5600     9.8744     78.912
 1.5600     9.8901     137.78
 1.5600     9.9147     137.30
 1.5600     9.9413     143.81
 1.5600     9.9459     107.40
 1.5600     9.9712     60.036
 1.5600     9.9919     50.576
 1.5600     10.029     55.095
 1.5600     10.051     63.093
 1.5600     10.068     32.183
 1.5600     10.093     46.666
 1.5600     10.114     99.553
 1.5600     10.132     24.253
 1.5600     10.148     59.180
 1.5600     10.168     59.695
 1.5600     10.187     70.682
 1.5600     10.211     72.697
 1.5600     10.226     44.778
 1.5600     10.248     52.776
 1.5600     10.267     82.218
 1.5600     10.292     52.312
 1.5600     10.312     45.844
 1.5600     10.325     25.405
 1.5600     10.347     69.812
 1.5600     10.370     46.389
 1.5600     10.388     80.319
 1.5600     10.409     63.378
 1.5600     10.425     85.336
 1.5600     10.451     88.849
 1.5600     10.484     114.31
 1.5600     10.513     108.35
 1.5600     10.530     171.71
 1.5600     10.545     134.81
 1.5600     10.572     129.84
 1.5600     10.584     175.74
 1.5600     10.615     157.31
 1.5600     10.629     176.27
 1.5600     10.652     154.35
 1.5600     10.674     199.25     43.392
 1.5600     10.689     108.49
 1.5600     10.716     134.95
 1.5600     10.730     130.97
 1.5600     10.745     107.04
 1.5600     10.768     88.103
 1.5600     10.786     70.163
 1.5600     10.807     84.643
 1.5600     10.825     63.211
 1.5600     10.850     74.702
 1.5600     10.866     58.256
 1.5600     10.884     101.16
 1.5600     10.900     147.56
 1.5600     10.921     133.11
 1.5600     10.943     166.55
 1.5600     10.973     129.67
 1.5600     10.986     120.68
 1.5600     10.999     106.24
 1.5600     11.022     107.26
 1.5600     11.044     113.26
 1.5600     11.063     104.30
 1.5600     11.080     55.933
 1.5600     11.100     68.418
 1.5600     11.117     83.893
 1.5600     11.145     86.410
 1.5600     11.160     60.984
 1.5600     11.176     78.953
 1.5600     11.197     69.493
 1.5600     11.215     113.90
 1.5600     11.237     108.43
 1.5600     11.254     129.89
 1.5600     11.277     104.97
 1.5600     11.293     95.006
 1.5600     11.315     144.90
 1.5600     11.334     126.96
 1.5600     11.353     102.04
 1.5600     11.375     128.49
 1.5600     11.387     116.03
 1.5600     11.416     117.05
 1.5600     11.445     125.05
 1.5600     11.475     163.48
 1.5600     11.481     177.95
 1.5600     11.508     179.47
 1.5600     11.523     131.60
 1.5600     11.547     126.63
 1.5600     11.566     100.71
 1.5600     11.590     139.13
 1.5600     11.605     121.19
 1.5600     11.630     121.21
 1.5600     11.644     96.284
 1.5600     11.663     104.78
 1.5600     11.689     104.80
 1.5600     11.706     117.28
 1.5600     11.724     104.83
 1.5600     11.745     104.84
 1.5600     11.769     116.33
 1.5600     11.787     138.29
 1.5600     11.823     105.90
 1.5600     11.850     95.949
 1.5600     11.864     101.95
 1.5600     11.881     74.028
 1.5600     11.903     79.034
 1.5600     11.921     107.48
 1.5600     11.940     81.058
 1.5600     11.953     69.098
 1.5600     11.961     63.119
 1.5600     11.979     87.573
 1.5600     11.998     80.605
 1.5600     12.041     83.133
 1.5600     12.061     104.60
 1.5600     12.079     136.03
 1.5600     12.100     120.09
 1.5600     12.118     103.64
ENDDATA            403
ENDSUBENT          416
SUBENT        F0800005   20070126   20070320   20070315       F026
BIB                  3          3
REACTION   (57-LA-139(P,EL)57-LA-139,,DA)
ERR-ANALYS (ANG-ERR-D)Digitizing error
STATUS     (CURVE)Fig.12
ENDBIB               3
COMMON               3          3
EN         ANG-ERR-D  ERR-DIG
MEV        ADEG       PER-CENT
  9.86      0.185      0.2
ENDCOMMON            3
DATA                 2         20
ANG        DATA
ADEG       MB/SR
 75.962     215.39
 81.941     146.02
 87.420     102.71
 91.077     76.588
 92.237     74.245
 97.215     56.450
 106.49     44.804
 109.80     41.215
 115.83     40.040
 121.04     38.222
 125.84     36.415
 131.55     34.292
 136.35     30.640
 141.40     27.591
 143.38     26.489
 146.12     24.178
 149.18     22.633
 150.26     19.831
 154.15     18.856
 159.36     18.568
ENDDATA             22
ENDSUBENT           34
SUBENT        F0800006   20070126   20070320   20070315       F026
BIB                  3          4
REACTION   (57-LA-139(P,INL)57-LA-139,PAR,DA)
ERR-ANALYS (ANG-ERR-D)Digitizing error
           (DATA-ERR1)Error from the graphic bars
STATUS     (CURVE)Fig.13,15,16
ENDBIB               4
COMMON               3          3
E-LVL      ANG-ERR-D  ERR-DIG
KEV        ADEG       MU-B/SR
  166.      0.029      0.035
ENDCOMMON            3
DATA                 4         23
EN         ANG        DATA       DATA-ERR1
MEV        ADEG       MU-B/SR    MU-B/SR
 9.8600     95.049     123.93     11.399
 9.8600     106.20     128.80     11.710
 9.8600     109.23     91.903     9.6373
 9.8600     115.09     90.034     11.710
 9.8600     120.12     94.486     12.021
 9.8600     124.99     107.54     8.7047
 9.8600     125.31     119.15     9.9482
 9.8600     130.12     91.992     10.259
 9.8600     131.49     129.40     9.9482
 9.8600     136.41     129.09     11.710
 9.8600     141.28     148.46     10.259
 9.8600     144.48     168.56     11.606
 9.8600     146.47     163.28     10.052
 9.8600     150.82     194.46     11.710
 9.8600     155.64     204.10     12.124
 9.8600     160.88     212.18     11.295
 9.8600     165.69     222.64     10.155
 10.130     124.92     65.334     6.7194
 10.130     140.83     75.023     6.8182
 10.130     159.58     84.714     6.0277
 10.280     125.34     46.971     4.7405
 10.280     141.21     38.722     5.3331
 10.280     160.70     34.620     5.6293
ENDDATA             25
ENDSUBENT           38
SUBENT        F0800007   20070126   20070320   20070315       F026
BIB                  2          4
REACTION  1(57-LA-139(P,0),,WID)
          2(57-LA-139(P,0),,J)
          3(57-LA-139(P,0),,PTY)
STATUS     (TABLE)Tbl.3,5.Resonance energies are given in tbl.3.
ENDBIB               4
NOCOMMON             0          0
DATA                 4         10
EN-RES     DATA      1DATA      2DATA      3
MEV        KEV        NO-DIM     NO-DIM
 9.8100     10.300     3.0000    -1.0000
 9.8400     6.2200     2.0000    -1.0000
 9.8470     12.700     5.0000    -1.0000
 9.8530     8.6200     1.0000    -1.0000
 9.8730     13.000     4.0000    -1.0000
 9.9720     7.2500     2.0000    -1.0000
 10.082    0.31000     4.0000    -1.0000
 10.131     2.9700     3.0000    -1.0000
 10.132    0.32000     5.0000    -1.0000
 10.280     5.8900     1.0000    -1.0000
ENDDATA             12
ENDSUBENT           21
SUBENT        F0800008   20070126   20070320   20070315       F026
BIB                  3          3
REACTION   (57-LA-139(P,0),PAR,WID)
EN-SEC     (E-EXC,57-LA-140)
STATUS     (TABLE)Tbl.3,5.Resonance energies are given in tbl.3.
ENDBIB               3
NOCOMMON             0          0
DATA                 5         10
EN-RES     E-EXC      DATA       SPIN J     PARITY
KEV        KEV        KEV        NO-DIM     NO-DIM
 9.8100     0.         2.1000     3.0000    -1.0000
 9.8400     30.        6.0000     2.0000    -1.0000
 9.8470     36.       0.23000     5.0000    -1.0000
 9.8530     44.        3.8000     1.0000    -1.0000
 9.8730     63.       0.23000     4.0000    -1.0000
 9.9720     162.       6.0000     2.0000    -1.0000
 10.082     272.       13.100     4.0000    -1.0000
 10.131     320.       11.400     3.0000    -1.0000
 10.132     321.       13.800     5.0000    -1.0000
 10.280     467.       11.200     1.0000    -1.0000
ENDDATA             12
ENDSUBENT           20
ENDENTRY             8
