ENTRY            F0891   20090518   20090901   20090828       F036
SUBENT        F0891001   20090518   20090901   20090828       F036
BIB                 11         25
TITLE      Statistical analysis of the reaction 51V(p,p)51V.
AUTHOR     (C.M.Lamba,N.Sarma,N.S.Thampi,D.K.Sood,V.K.Deshpande)
INSTITUTE  (3INDTRM,3INDITK)
REFERENCE  (J,NP/A,110,111,1968)
FACILITY   (VDG,3INDTRM) The 5.5 MeV
INC-SOURCE The stability of the current integrator was within 3%
           down to a minimum current of 0.1 mu-A, as estimated
           from repeat runs on the same target at the same energy.
DETECTOR   (SOLST) Four ORTEC semiconductor detectors of depletion
           depth near 500 mu-m were mounted on the periphery of
           the wheel. The active area of the detectors (about
           50 mm2) was reduced to 4.5 mm2 by collimators. The
           angular spread of the detector at the target was 0.47
           degr. and the solid angle for detection near 2*10**(-4)
           sr. The detector resolution was estimated, using 241Am
           alphas, to be 24 keV.
METHOD     (BCINT)
SAMPLE     Targets were made by evaporating natural vanadium metal
           on to self supporting carbon films of about 10 to 20
           mu-g/cm2. The thickness of the vanadium target was
           5 mu-g/cm2.
ERR-ANALYS (ERR-SYS)    Systematic error
           (EN-ERR-DIG) Energy digitizing error
           (ERR-DIG)    Data digitizing error
HISTORY    (20090518C)
ENDBIB              25
COMMON               4          3
ERR-SYS    EN-RSL     EN-ERR-DIG ERR-DIG
PER-CENT   KEV        MEV        MB/SR
 15.        1.         0.001      0.465
ENDCOMMON            3
ENDSUBENT           32
SUBENT        F0891002   20090518   20090901   20090828       F036
BIB                  2          2
REACTION   (23-V-51(P,EL)23-V-51,,DA)
STATUS     (CURVE) Fig.2
ENDBIB               2
NOCOMMON             0          0
DATA                 3       1272
ANG        EN         DATA
ADEG       MEV        MB/SR
       100.     4.0035     140.44
       100.     4.0072     148.42
       100.     4.0149     151.61
       100.     4.0202     146.04
       100.     4.0254     142.87
       100.     4.0299     108.21
       100.      4.036     127.74
       100.     4.0372      139.3
       100.     4.0409     150.86
       100.     4.0461     144.89
       100.     4.0551     149.68
       100.     4.0615     154.87
       100.     4.0666     160.46
       100.     4.0719     152.89
       100.     4.0733     144.53
       100.     4.0735     134.97
       100.     4.0799     139.76
       100.     4.0811     143.75
       100.     4.0823     151.32
       100.     4.0861     158.49
       100.     4.0915     140.57
       100.     4.0965     153.33
       100.     4.1068     156.53
       100.     4.1159     154.55
       100.     4.1201     137.43
       100.     4.1263     153.77
       100.      4.134     160.16
       100.     4.1356     136.26
       100.     4.1432       153.
       100.     4.1499     135.08
       100.     4.1563     143.46
       100.     4.1641     138.69
       100.     4.1715     160.61
       100.     4.1767     163.81
       100.     4.1806     159.43
       100.      4.186     147.09
       100.     4.1911     151.48
       100.     4.1976      147.5
       100.     4.2091     159.47
       100.     4.2106     145.13
       100.     4.2133     138.76
       100.     4.2172     137.18
       100.     4.2213     127.22
       100.     4.2261     150.73
       100.     4.2302     134.01
       100.      4.234     141.58
       100.     4.2405     137.61
       100.     4.2445     131.24
       100.     4.2458     133.23
       100.     4.2509     140.81
       100.     4.2552     109.35
       100.     4.2614     130.87
       100.     4.2666     126.49
       100.     4.2708     109.37
       100.     4.2769     131.69
       100.     4.2821     128.91
       100.      4.286      132.5
       100.     4.2938     130.92
       100.     4.2977     126.94
       100.     4.3016     126.54
       100.     4.3067     128.94
       100.     4.3096       115.
       100.     4.3109     108.63
       100.     4.3144     139.31
       100.      4.321     130.96
       100.     4.3248     136.94
       100.     4.3301     125.39
       100.     4.3355     109.86
       100.     4.3454     144.54
       100.      4.353      155.7
       100.     4.3557     146.54
       100.     4.3635     142.17
       100.     4.3703     123.06
       100.     4.3783     110.72
       100.     4.3807     122.28
       100.     4.3859      119.1
       100.     4.3961     130.27
       100.     4.4039     128.69
       100.     4.4081     109.57
       100.     4.4133     106.79
       100.     4.4171     110.78
       100.     4.4209     117.56
       100.     4.4261     119.56
       100.     4.4338     124.75
       100.     4.4391     117.19
       100.     4.4417      114.4
       100.      4.443     110.82
       100.     4.4457     103.25
       100.      4.451     100.47
       100.     4.4576     88.134
       100.     4.4626     105.27
       100.     4.4677     107.67
       100.     4.4738     129.59
       100.     4.4757     120.82
       100.     4.4779     118.04
       100.      4.483     125.62
       100.     4.4882     121.64
       100.     4.4933     128.82
       100.     4.4986     121.26
       100.     4.5063     122.07
       100.      4.509      114.9
       100.     4.5117     109.73
       100.     4.5155     114.51
       100.     4.5167     120.49
       100.      4.522     115.32
       100.     4.5274     97.799
       100.       4.53     100.99
       100.     4.5328     106.57
       100.     4.5336     114.54
       100.      4.536     129.28
       100.     4.5413     120.93
       100.     4.5477     124.92
       100.     4.5518     112.18
       100.     4.5582     115.37
       100.     4.5596     112.19
       100.     4.5636     106.22
       100.     4.5648      111.8
       100.     4.5686     116.19
       100.     4.5713     110.21
       100.     4.5726     106.23
       100.     4.5777     111.02
       100.      4.583     103.46
       100.     4.5871     93.107
       100.     4.5934     101.88
       100.     4.5971     113.84
       100.     4.6011     107.87
       100.     4.6088     110.67
       100.     4.6102      104.3
       100.     4.6116     101.11
       100.     4.6165     117.45
       100.     4.6192     110.68
       100.     4.6193      105.5
       100.     4.6221     91.167
       100.     4.6272     95.557
       100.      4.631     104.73
       100.     4.6361     107.12
       100.       4.64     105.54
       100.     4.6427     96.377
       100.     4.6478     101.17
       100.     4.6518     96.789
       100.     4.6545     91.614
       100.     4.6572     85.642
       100.     4.6624     82.463
       100.      4.666      100.4
       100.     4.6735     119.53
       100.     4.6762     111.17
       100.     4.6813     116.75
       100.     4.6889     129.11
       100.     4.6929     117.17
       100.     4.6983     104.43
       100.     4.7112     106.84
       100.     4.7125     110.82
       100.     4.7188     120.79
       100.     4.7214      119.2
       100.     4.7281     105.67
       100.     4.7383     114.84
       100.     4.7384     110.46
       100.     4.7425     98.119
       100.     4.7461     110.87
       100.     4.7527     103.31
       100.     4.7556     88.179
       100.     4.7621     84.205
       100.     4.7644     100.94
       100.     4.7708     108.12
       100.     4.7762     92.194
       100.     4.7814     91.006
       100.     4.7877     104.16
       100.     4.7905     91.418
       100.     4.7948     63.936
       100.     4.8012     69.523
       100.      4.805     76.301
       100.     4.8115     73.522
       100.     4.8152     84.284
       100.     4.8203     91.861
       100.     4.8242     88.281
       100.     4.8306     96.657
       100.     4.8345     92.679
       100.     4.8396      99.06
       100.     4.8461     95.086
       100.     4.8512     103.86
       100.      4.862     73.996
       100.     4.8646     73.601
       100.     4.8698     72.015
       100.     4.8774     84.775
       100.     4.8815     68.447
       100.     4.8893     68.857
       100.      4.897     70.064
       100.     4.9021     78.438
       100.     4.9032     86.805
       100.     4.9058     88.403
       100.     4.9172     105.95
       100.     4.9227     87.631
       100.     4.9268     74.092
       100.     4.9306     78.082
       100.     4.9383     79.288
       100.     4.9422     81.684
       100.     4.9447     84.875
       100.     4.9485      92.45
       100.      4.957     126.33
       100.     4.9591     76.132
       100.     4.9642     83.311
       100.     4.9667     85.705
       100.     4.9719     84.119
       100.     4.9773     72.972
       100.     4.9799     69.789
       100.     4.9864     70.595
       100.      4.989     67.412
       100.     4.9904     64.227
       100.     4.9982     61.849
       100.     4.9994     65.037
       100.     5.0059     67.039
       100.     5.0085     63.856
       100.      5.019     59.888
       100.     5.0201     71.442
       100.     5.0225     84.194
       100.      5.029     81.814
       100.     5.0364     102.94
       100.     5.0405     91.392
       100.     5.0443     94.983
       100.     5.0483     89.013
       100.      5.051     84.237
       100.     5.0549     80.657
       100.     5.0601     77.876
       100.     5.0613     82.658
       100.     5.0647     116.53
       100.     5.0684     129.28
       100.     5.0746     61.962
       100.     5.0782     83.879
       100.     5.0851     56.002
       100.     5.0897     90.668
       100.     5.0937     86.292
       100.     5.1014     89.092
       100.     5.1053     88.301
       100.     5.1155     100.67
       100.     5.1209     82.349
       100.      5.126     91.519
       100.     5.1299     89.533
       100.     5.1312     87.145
       100.     5.1352     83.963
       100.     5.1402     93.134
       100.     5.1441      93.14
       100.     5.1468     87.168
       100.      5.154     39.771
       100.     5.1572     79.614
       100.     5.1635     93.965
       100.     5.1675     83.215
       100.     5.1742     72.867
       100.     5.1778     87.612
       100.     5.1829     97.181
       100.     5.1882     86.034
       100.     5.1922      81.26
       100.     5.1974     82.064
       100.     5.2049     94.425
       100.     5.2092     72.122
       100.     5.2153     94.839
       100.     5.2196     64.967
       100.     5.2244     92.064
       100.     5.2258     88.082
       100.     5.2336     82.118
       100.     5.2387     91.288
       100.     5.2478     87.318
       100.     5.2542     90.913
       100.     5.2582     82.553
       100.     5.2648      75.79
       100.     5.2701     66.237
       100.     5.2714     71.418
       100.     5.2764     81.783
       100.     5.2819     62.271
       100.     5.2854      83.39
       100.     5.2907     77.821
       100.     5.2947     66.672
       100.     5.2988     57.914
       100.     5.3036     78.239
       100.     5.3074     87.805
       100.     5.3138     88.612
       100.      5.319     92.603
       100.     5.3242     91.017
       100.     5.3282     79.869
       100.     5.3282     82.657
       100.     5.3333      86.25
       100.     5.3347     82.269
       100.     5.3388     65.144
       100.     5.3451     75.512
       100.     5.3489     83.485
       100.     5.3539     94.249
       100.     5.3578     93.458
       100.     5.3643     92.272
       100.     5.3718     111.01
       100.     5.3756     112.61
       100.     5.3787     82.334
       100.     5.3916      83.15
       100.     5.4007     80.773
       100.     5.4059     83.171
       100.     5.4084     87.557
       100.     5.4124     83.579
       100.      5.415     77.608
       100.     5.4175     83.985
       100.     5.4187     91.158
       100.      5.429     92.767
       100.     5.4343     87.198
       100.      5.437     82.819
       100.     5.4397     75.652
       100.     5.4448     80.042
       100.     5.4503     58.936
       100.      5.454     72.885
       100.     5.4619     66.124
       100.     5.4652        98.
       100.     5.4705     90.439
       100.     5.4756     98.015
       100.      5.481      86.47
       100.     5.4861     91.657
       100.     5.4914     82.104
       100.     5.4942     69.758
       100.     5.5007     68.174
       120.      4.003     76.073
       120.     4.0056     74.935
       120.     4.0107     77.992
       120.     4.0131      88.28
       120.     4.0184     83.719
       120.     4.0248     87.921
       120.     4.0277     73.452
       120.     4.0283     78.798
       120.     4.0325     89.839
       120.      4.035     92.129
       120.     4.0375     96.324
       120.     4.0427     98.619
       120.     4.0478     101.29
       120.     4.0543     97.497
       120.     4.0581     101.69
       120.     4.0645     104.75
       120.     4.0699     97.526
       120.     4.0725     94.864
       120.     4.0802     96.783
       120.     4.0841     98.314
       120.     4.0881     91.846
       120.     4.0932     97.187
       120.     4.0969     102.15
       120.     4.1046     105.59
       120.     4.1086     99.501
       120.     4.1127     90.748
       120.     4.1181     82.378
       120.     4.1242     98.006
       120.     4.1305     104.87
       120.     4.1321     90.784
       120.     4.1386     90.034
       120.     4.1428     77.853
       120.     4.1497     58.058
       120.     4.1529     88.155
       120.     4.1541     91.205
       120.      4.158     93.116
       120.     4.1658     91.226
       120.     4.1704     115.23
       120.     4.1745       108.
       120.     4.1787     92.012
       120.      4.184     86.308
       120.     4.1874     87.843
       120.     4.1903     93.176
       120.     4.1994     91.288
       120.     4.2044      103.1
       120.     4.2108     102.35
       120.     4.2149     92.078
       120.     4.2178     78.752
       120.     4.2253      93.62
       120.     4.2294      81.82
       120.     4.2345     87.543
       120.     4.2396     91.361
       120.     4.2436     85.655
       120.     4.2512      90.24
       120.     4.2566     79.585
       120.     4.2617     85.307
       120.     4.2629     88.357
       120.     4.2655     90.266
       120.     4.2707     86.086
       120.     4.2772     87.621
       120.     4.2811     83.819
       120.      4.285     82.303
       120.     4.2875     86.498
       120.     4.2897     88.792
       120.     4.2915     85.362
       120.     4.2942     78.511
       120.      4.302     75.097
       120.     4.3058     79.675
       120.      4.311     79.303
       120.     4.3122     85.781
       120.     4.3158     96.834
       120.      4.321     94.939
       120.     4.3262     95.329
       120.     4.3303     85.814
       120.     4.3357     73.635
       120.     4.3374     75.173
       120.     4.3392     90.782
       120.     4.3457     93.079
       120.     4.3496     92.325
       120.     4.3585      96.15
       120.     4.3627     83.969
       120.     4.3666     80.929
       120.     4.3705     83.221
       120.     4.3756     85.897
       120.     4.3797     72.573
       120.     4.3834     82.483
       120.      4.391     90.496
       120.     4.3963     85.554
       120.     4.4028     84.423
       120.     4.4082     74.149
       120.     4.4109     66.155
       120.     4.4186     69.597
       120.     4.4236     77.605
       120.     4.4287      84.09
       120.     4.4325     86.763
       120.     4.4377     86.011
       120.     4.4429     83.354
       120.      4.443     79.545
       120.     4.4483      73.08
       120.     4.4522     76.134
       120.     4.4588     69.671
       120.     4.4599     76.148
       120.     4.4637     81.107
       120.     4.4664     77.303
       120.     4.4736     104.74
       120.      4.478     76.562
       120.     4.4832     76.572
       120.     4.4883     82.675
       120.      4.492     87.253
       120.     4.4976     70.885
       120.     4.5015     68.225
       120.     4.5066     71.282
       120.     4.5117     76.243
       120.     4.5167     84.251
       120.     4.5219     80.833
       120.     4.5288     64.466
       120.     4.5337     76.283
       120.     4.5387     85.053
       120.      4.544     77.064
       120.     4.5479     78.595
       120.     4.5557     75.181
       120.     4.5584       72.9
       120.     4.5636     67.958
       120.     4.5688     69.872
       120.     4.5713     72.924
       120.     4.5777     75.221
       120.      4.583     70.279
       120.      4.587      63.05
       120.     4.5933     74.488
       120.     4.5958     78.302
       120.     4.5998     73.738
       120.     4.6011     72.217
       120.     4.6062     75.654
       120.     4.6087     78.706
       120.     4.6127     74.523
       120.     4.6192     73.393
       120.     4.6247     58.548
       120.      4.627      70.36
       120.     4.6334     73.419
       120.     4.6375     65.427
       120.     4.6454     59.728
       120.     4.6491     65.068
       120.     4.6529     72.312
       120.     4.6556     66.603
       120.      4.662     66.234
       120.     4.6673     63.197
       120.     4.6697     71.962
       120.     4.6733     86.061
       120.     4.6786     80.358
       120.      4.681     86.457
       120.     4.6848     90.653
       120.     4.6877     76.185
       120.     4.6942     77.339
       120.     4.6968     74.678
       120.     4.7032     80.784
       120.     4.7084      79.27
       120.     4.7135     80.803
       120.     4.7198     90.337
       120.     4.7252     79.681
       120.     4.7304     77.025
       120.     4.7356     79.319
       120.      4.737       69.8
       120.     4.7397     65.234
       120.     4.7447     75.527
       120.     4.7498     77.822
       120.     4.7551     75.165
       120.     4.7565     68.312
       120.     4.7579     61.458
       120.     4.7621     49.658
       120.     4.7697     58.051
       120.     4.7734     64.153
       120.     4.7772     67.969
       120.     4.7849     69.887
       120.     4.7927     70.663
       120.     4.7954     63.812
       120.     4.7995     56.202
       120.     4.8046     58.116
       120.      4.811     62.317
       120.     4.8161     67.278
       120.     4.8212     69.192
       120.     4.8237     73.767
       120.     4.8275     76.441
       120.     4.8327     74.927
       120.     4.8379     74.936
       120.     4.8443     77.995
       120.      4.847      73.81
       120.      4.856     76.874
       120.     4.8601     65.835
       120.     4.8642     53.654
       120.     4.8705     63.188
       120.      4.872     54.049
       120.     4.8796     62.062
       120.     4.8849     57.882
       120.     4.8952     59.043
       120.     4.8976     65.523
       120.     4.9041      67.82
       120.     4.9092     70.115
       120.     4.9132     66.313
       120.     4.9207     77.373
       120.     4.9274     65.578
       120.     4.9327     61.397
       120.     4.9354     54.927
       120.     4.9404     62.935
       120.     4.9494     65.237
       120.     4.9543     77.054
       120.     4.9621     78.211
       120.     4.9656     34.033
       120.     4.9715     61.088
       120.     4.9781     57.291
       120.     4.9808     52.344
       120.     4.9873     50.832
       120.     4.9925     47.795
       120.     4.9964     45.136
       120.     5.0017     40.574
       120.     5.0067     51.249
       120.     5.0106     48.209
       120.     5.0171     47.078
       120.     5.0223     45.945
       120.      5.026     53.189
       120.     5.0322     66.151
       120.     5.0374     66.541
       120.     5.0408     87.877
       120.     5.0462     77.603
       120.     5.0528     73.425
       120.     5.0569     62.006
       120.     5.0608      60.87
       120.     5.0685     63.551
       120.     5.0705     92.884
       120.     5.0753     109.27
       120.     5.0776     65.853
       120.     5.0792     51.381
       120.     5.0827     65.481
       120.     5.0864     75.391
       120.     5.0903     73.113
       120.     5.0957     62.458
       120.     5.1023     60.565
       120.     5.1068     30.102
       120.     5.1112     65.533
       120.     5.1181     44.216
       120.      5.119     64.405
       120.     5.1213     75.836
       120.     5.1266     73.941
       120.     5.1278     78.133
       120.     5.1341     82.716
       120.     5.1375     45.394
       120.     5.1421     75.112
       120.     5.1472     77.788
       120.     5.1512     72.082
       120.     5.1565     67.902
       120.     5.1605     62.576
       120.      5.163     66.771
       120.      5.168     72.874
       120.     5.1731     77.074
       120.      5.177     74.034
       120.     5.1798     66.421
       120.     5.1837     63.381
       120.     5.1872     82.432
       120.     5.1936     88.157
       120.     5.1976     79.785
       120.     5.2041     81.701
       120.     5.2093     76.759
       120.     5.2131     81.337
       120.     5.2171      79.44
       120.     5.2223     76.021
       120.     5.2263     69.553
       120.      5.234     72.995
       120.      5.238     69.955
       120.     5.2444     73.776
       120.     5.2521     75.695
       120.     5.2522     69.982
       120.     5.2587     71.136
       120.     5.2611     75.711
       120.     5.2652     69.624
       120.     5.2705     63.921
       120.      5.272     53.258
       120.     5.2773     47.174
       120.     5.2834     65.849
       120.     5.2847      61.28
       120.     5.2875     52.525
       120.     5.2902     49.102
       120.     5.2939     59.012
       120.      5.299     61.307
       120.     5.3041     63.601
       120.     5.3069     52.941
       120.      5.313     73.521
       120.      5.318     78.863
       120.     5.3248     66.686
       120.     5.3271     80.784
       120.     5.3349     75.466
       120.     5.3392     58.333
       120.      5.344     76.625
       120.     5.3494     65.589
       120.     5.3597     68.274
       120.     5.3621     75.135
       120.     5.3685     78.955
       120.     5.3739     70.585
       120.     5.3799     90.022
       120.     5.3839     86.982
       120.     5.3868     69.085
       120.     5.3895     64.901
       120.     5.3947     64.148
       120.     5.4011     66.826
       120.     5.4036     70.259
       120.     5.4087     74.458
       120.     5.4114     69.511
       120.     5.4128     66.086
       120.     5.4179     70.666
       120.     5.4217      73.72
       120.     5.4257     69.538
       120.     5.4307     74.879
       120.     5.4333     73.361
       120.     5.4411     74.898
       120.     5.4438      69.19
       120.     5.4504     60.441
       120.     5.4567     69.214
       120.     5.4584     52.076
       120.     5.4633     64.274
       120.     5.4686     60.094
       120.      5.471     68.859
       120.     5.4758     85.627
       120.     5.4811     78.781
       120.     5.4874      86.41
       120.     5.4878     68.509
       120.     5.4893     58.608
       120.     5.4944     62.046
       120.     5.4983     62.814
       120.     5.5035     60.158
       120.     5.5099     63.597
       140.     4.0026     68.241
       140.     4.0064     73.345
       140.     4.0102     80.409
       140.     4.0126     89.824
       140.     4.0166     85.125
       140.     4.0241     96.116
       140.     4.0282     83.574
       140.     4.0333     86.719
       140.     4.0345     98.093
       140.     4.0368     112.61
       140.     4.0432     116.93
       140.     4.0472     110.66
       140.     4.0512     101.26
       140.      4.059     99.699
       140.     4.0642     95.786
       140.     4.0695     89.519
       140.     4.0746     94.625
       140.     4.0783     107.57
       140.     4.0833     113.07
       140.     4.0862     95.035
       140.      4.095     113.09
       140.     4.0976     107.99
       140.     4.1041     109.57
       140.     4.1069      97.42
       140.     4.1144      108.8
       140.     4.1186     89.595
       140.     4.1236     99.406
       140.     4.1287      105.3
       140.     4.1329     90.009
       140.     4.1381     87.271
       140.     4.1435     73.163
       140.     4.1471      90.03
       140.     4.1522     93.175
       140.     4.1585     103.38
       140.     4.1625     92.407
       140.     4.1687     110.06
       140.     4.1739     112.03
       140.     4.1781      90.47
       140.     4.1819     93.613
       140.     4.1859     88.129
       140.     4.1911     86.568
       140.     4.1935     95.199
       140.     4.1987     96.776
       140.     4.2039     95.607
       140.     4.2089     103.07
       140.      4.213      93.66
       140.     4.2131     82.681
       140.     4.2173     63.472
       140.     4.2233     95.637
       140.     4.2286     83.489
       140.     4.2335     102.71
       140.     4.2442     82.728
       140.     4.2478     96.851
       140.     4.2521     72.937
       140.     4.2608     92.949
       140.     4.2659     98.055
       140.     4.2699     91.787
       140.     4.2725     86.693
       140.     4.2803     86.313
       140.     4.2833     63.181
       140.     4.2878     99.657
       140.     4.2946     80.845
       140.     4.3036     84.388
       140.     4.3115      78.91
       140.     4.3149     102.84
       140.     4.3187     109.12
       140.      4.324     102.85
       140.     4.3307     87.566
       140.      4.336     81.692
       140.     4.3378     86.796
       140.     4.3395     100.52
       140.      4.346     98.962
       140.       4.35     95.439
       140.     4.3539     93.876
       140.     4.3604      92.71
       140.     4.3657     83.698
       140.     4.3708     89.588
       140.     4.3773     83.716
       140.     4.3797     96.661
       140.     4.3862     93.926
       140.     4.3912     103.34
       140.     4.3967     83.354
       140.     4.4018     86.107
       140.      4.406      67.29
       140.     4.4138     68.086
       140.     4.4176      73.19
       140.     4.4225      86.53
       140.     4.4226     82.609
       140.     4.4265     81.047
       140.     4.4316     84.976
       140.     4.4381      85.77
       140.     4.4419     84.599
       140.      4.446     74.802
       140.     4.4512     74.026
       140.     4.4563     79.916
       140.     4.4599     90.901
       140.     4.4651     89.341
       140.     4.4678     83.071
       140.     4.4692      80.72
       140.     4.4717     83.861
       140.      4.477     78.771
       140.     4.4808     83.482
       140.     4.4845     90.155
       140.      4.491     88.988
       140.     4.4938     79.189
       140.     4.4939     69.385
       140.      4.503     69.399
       140.      4.508     77.642
       140.     4.5118     83.922
       140.     4.5182     89.422
       140.     4.5209     78.054
       140.     4.5251     62.767
       140.     4.5299     85.518
       140.     4.5364     77.686
       140.     4.5429      78.48
       140.      4.548     82.801
       140.     4.5494     77.313
       140.     4.5508     71.825
       140.      4.556     67.912
       140.     4.5611     73.802
       140.     4.5663     71.457
       140.     4.5753        75.
       140.     4.5819     64.814
       140.      4.586     54.233
       140.     4.5934     76.596
       140.     4.5971     84.837
       140.     4.5998     76.214
       140.     4.6025     70.336
       140.     4.6066     60.538
       140.     4.6128     75.449
       140.     4.6168     69.181
       140.     4.6207     62.913
       140.      4.627     75.471
       140.     4.6296     74.691
       140.     4.6335      73.52
       140.     4.6364     56.271
       140.     4.6428     60.594
       140.     4.6479      62.17
       140.      4.653     68.452
       140.     4.6595     65.325
       140.     4.6635     58.273
       140.     4.6697     70.831
       140.     4.6707     89.655
       140.     4.6761     76.723
       140.     4.6809     97.122
       140.     4.6864     81.052
       140.     4.6928     83.023
       140.     4.6994     74.014
       140.     4.7017     90.095
       140.      4.707     82.652
       140.     4.7109     86.188
       140.     4.7199     86.201
       140.     4.7227     75.618
       140.     4.7253     72.092
       140.     4.7344     68.969
       140.     4.7406     85.057
       140.     4.7483     86.245
       140.     4.7525     70.565
       140.     4.7578     62.731
       140.     4.7691     82.747
       140.     4.7755     85.502
       140.     4.7767     81.979
       140.     4.7784     67.076
       140.     4.7848      73.36
       140.     4.7901     63.957
       140.     4.7912     73.762
       140.     4.7952      68.67
       140.     4.7953     60.043
       140.     4.8004      69.07
       140.     4.8054     75.352
       140.     4.8133     67.914
       140.     4.8185     65.961
       140.     4.8247     79.695
       140.     4.8302     63.626
       140.     4.8338      76.18
       140.     4.8404     73.053
       140.     4.8429     78.155
       140.     4.8482     66.398
       140.     4.8546     73.467
       140.     4.8599     67.201
       140.     4.8612     62.889
       140.     4.8614      53.87
       140.     4.8676     69.957
       140.     4.8718     47.219
       140.     4.8793      61.74
       140.     4.8833     55.864
       140.     4.8911       54.7
       140.     4.8934     58.637
       140.     4.8969     68.046
       140.      4.901     80.204
       140.     4.9076     70.411
       140.     4.9077     66.882
       140.     4.9143     60.225
       140.     4.9193     71.605
       140.     4.9221     56.708
       140.     4.9273     55.932
       140.     4.9325     51.234
       140.     4.9401     64.578
       140.     4.9478     66.551
       140.     4.9516     68.517
       140.     4.9541     77.148
       140.     4.9606     70.884
       140.     4.9607     65.394
       140.     4.9609      53.63
       140.     4.9698     62.663
       140.     4.9751     58.358
       140.     4.9829     56.017
       140.     4.9843     48.568
       140.     4.9894     50.537
       140.      4.996     45.449
       140.     4.9997     52.121
       140.     5.0061     57.229
       140.     5.0102     47.039
       140.     5.0127     52.925
       140.     5.0204     52.545
       140.     5.0254     61.572
       140.     5.0303     77.657
       140.     5.0343     76.095
       140.     5.0418     89.047
       140.     5.0459     72.975
       140.     5.0511     74.944
       140.     5.0525     67.887
       140.     5.0526     61.613
       140.      5.059     62.408
       140.     5.0643     59.671
       140.     5.0654     67.907
       140.     5.0676     93.792
       140.     5.0725      108.7
       140.     5.0773     53.808
       140.     5.0784     67.143
       140.     5.0822     72.247
       140.     5.0874     67.157
       140.     5.0888     63.629
       140.      5.094     60.892
       140.     5.0978     62.859
       140.      5.103     64.435
       140.     5.1095      59.74
       140.      5.116     58.181
       140.     5.1195     79.362
       140.     5.1235     73.486
       140.     5.1299     80.555
       140.     5.1336     88.795
       140.     5.1415      80.18
       140.     5.1441     76.263
       140.     5.1506     79.018
       140.     5.1571     75.106
       140.     5.1612     64.132
       140.     5.1624     68.448
       140.      5.166     82.178
       140.     5.1712     83.755
       140.     5.1714     68.462
       140.      5.177     45.726
       140.     5.1805     69.652
       140.     5.1851     101.03
       140.     5.1892     90.449
       140.     5.1945     81.046
       140.     5.1985      75.17
       140.     5.2049     77.532
       140.     5.2125     86.171
       140.      5.214     71.664
       140.     5.2167     65.002
       140.     5.2231     70.894
       140.     5.2257     67.761
       140.     5.2309     68.945
       140.     5.2361     65.816
       140.     5.2412     70.529
       140.     5.2451     68.967
       140.     5.2477     70.931
       140.     5.2502     73.288
       140.     5.2568     67.808
       140.     5.2606     69.775
       140.      5.266     58.019
       140.       5.27     52.535
       140.     5.2779     40.782
       140.     5.2801     63.138
       140.     5.2855     51.774
       140.     5.2904     67.467
       140.     5.2957     62.378
       140.     5.3007     69.052
       140.     5.3048     59.254
       140.     5.3084     70.632
       140.     5.3161     76.918
       140.     5.3227     71.438
       140.     5.3265      76.15
       140.     5.3316     80.471
       140.     5.3344     66.358
       140.     5.3408     68.329
       140.     5.3435     64.804
       140.     5.3512     65.992
       140.     5.3537     67.564
       140.     5.3612     86.399
       140.     5.3715     87.983
       140.     5.3831     89.962
       140.     5.3847     69.965
       140.     5.3874     64.087
       140.     5.3938     69.194
       140.     5.4016     65.677
       140.     5.4079     77.451
       140.      5.417     73.151
       140.     5.4246     81.398
       140.     5.4339     67.295
       140.      5.439     72.008
       140.     5.4457     61.039
       140.     5.4519     74.773
       140.     5.4574      54.39
       140.     5.4624     66.554
       140.     5.4702     62.253
       140.     5.4712     82.253
       140.     5.4764     79.124
       140.     5.4828     83.055
       140.     5.4856     68.943
       140.     5.4858     54.434
       140.     5.4961     62.684
       140.     5.5011     69.751
       140.      5.509     64.273
       160.     4.0027     69.018
       160.     4.0104     79.882
       160.      4.017     67.026
       160.      4.022     85.525
       160.     4.0272     76.687
       160.     4.0323     83.528
       160.     4.0348     90.768
       160.     4.0384     112.08
       160.      4.041     117.71
       160.     4.0463     102.84
       160.     4.0516     93.201
       160.     4.0567     100.85
       160.     4.0632     104.87
       160.     4.0633     90.402
       160.     4.0727     71.921
       160.     4.0764     83.584
       160.     4.0789      90.02
       160.     4.0813      104.9
       160.     4.0879     94.855
       160.     4.0968     106.53
       160.     4.1018      119.4
       160.     4.1126     88.856
       160.     4.1165     84.037
       160.     4.1217     88.064
       160.     4.1242     94.499
       160.     4.1293     101.74
       160.     4.1333     87.274
       160.     4.1375     68.786
       160.     4.1427     66.381
       160.     4.1477     83.272
       160.     4.1515     87.297
       160.     4.1541     88.506
       160.     4.1565     99.364
       160.     4.1617     96.557
       160.     4.1668     105.01
       160.      4.172     107.02
       160.     4.1774     84.516
       160.     4.1813     86.933
       160.     4.1838     89.348
       160.     4.1929      91.37
       160.      4.197     77.706
       160.     4.2018     101.83
       160.     4.2084      95.41
       160.     4.2124     88.982
       160.     4.2188     87.784
       160.     4.2241     83.369
       160.     4.2269     67.291
       160.     4.2305     89.005
       160.     4.2343     95.442
       160.     4.2383     88.613
       160.     4.2423     81.381
       160.     4.2473     92.645
       160.     4.2526     83.405
       160.     4.2591     84.217
       160.     4.2603     88.641
       160.     4.2654     91.863
       160.     4.2681     87.846
       160.     4.2708     81.015
       160.     4.2785     85.045
       160.     4.2826     66.959
       160.     4.2873     105.96
       160.     4.2941     82.251
       160.      4.298     75.019
       160.     4.3044     85.078
       160.     4.3097     75.436
       160.     4.3109     85.086
       160.     4.3119     102.78
       160.     4.3197      105.2
       160.     4.3249      103.6
       160.      4.337      71.45
       160.     4.3381     83.513
       160.     4.3394     95.573
       160.     4.3443     104.83
       160.     4.3509     95.188
       160.     4.3536     83.934
       160.     4.3588     81.931
       160.     4.3653     85.959
       160.     4.3703     97.222
       160.     4.3744     81.146
       160.     4.3779     82.361
       160.     4.3807     98.039
       160.     4.3845     100.05
       160.     4.3897     100.86
       160.     4.3941     57.854
       160.     4.3977     80.774
       160.     4.4031     69.524
       160.     4.4096     62.698
       160.     4.4134     68.733
       160.     4.4199     71.957
       160.     4.4248      87.24
       160.     4.4328       77.2
       160.     4.4365     84.441
       160.     4.4405      79.22
       160.     4.4445     70.782
       160.      4.451      66.77
       160.     4.4561     74.415
       160.       4.46     75.626
       160.     4.4664      80.86
       160.     4.4714     91.722
       160.     4.4768     75.647
       160.     4.4858     80.483
       160.     4.4909     85.314
       160.     4.4937     73.256
       160.     4.4965     60.797
       160.     4.5004     59.194
       160.     4.5067     73.273
       160.     4.5117     81.722
       160.     4.5156     83.737
       160.     4.5223     68.066
       160.     4.5312     78.932
       160.     4.5326     73.306
       160.     4.5353     63.258
       160.     4.5391     69.294
       160.     4.5416     73.317
       160.     4.5455     77.342
       160.     4.5508     66.092
       160.     4.5573      62.08
       160.     4.5612     64.899
       160.     4.5689     65.713
       160.     4.5701     73.755
       160.     4.5753     72.154
       160.     4.5794     58.088
       160.     4.5875     35.182
       160.     4.5921     76.195
       160.     4.5974     70.573
       160.     4.6001     62.938
       160.     4.6079      59.33
       160.     4.6117     61.747
       160.     4.6157     59.742
       160.     4.6222     54.121
       160.     4.6246     72.216
       160.     4.6258     77.042
       160.     4.6312     57.751
       160.     4.6365     53.737
       160.      4.647     44.504
       160.     4.6482     71.845
       160.     4.6498     101.59
       160.     4.6571     59.794
       160.     4.6623     62.213
       160.      4.666     71.866
       160.     4.6709     91.974
       160.     4.6776     79.117
       160.     4.6839     94.402
       160.     4.6868      71.49
       160.     4.6918     81.145
       160.     4.6971     69.895
       160.      4.702     94.425
       160.     4.7073     85.989
       160.     4.7125     81.574
       160.     4.7164     86.001
       160.     4.7217     75.555
       160.     4.7257     69.127
       160.     4.7308      72.35
       160.      4.736     67.532
       160.     4.7424     79.601
       160.     4.7462     83.626
       160.     4.7527     78.408
       160.     4.7554     72.381
       160.     4.7581     62.736
       160.     4.7683     77.222
       160.     4.7722     79.237
       160.      4.775     60.747
       160.     4.7764     55.924
       160.     4.7802     60.352
       160.     4.7814     68.394
       160.     4.7866     64.782
       160.     4.7903     82.074
       160.     4.7944     64.792
       160.     4.8009     65.202
       160.     4.8046     76.865
       160.      4.815     72.858
       160.     4.8226     86.135
       160.     4.8254     72.469
       160.     4.8318     79.312
       160.     4.8357     74.493
       160.     4.8421     79.727
       160.      4.845     54.805
       160.     4.8514      64.06
       160.     4.8579      60.45
       160.     4.8618     59.249
       160.     4.8644     63.674
       160.     4.8694     76.545
       160.     4.8725     37.955
       160.     4.8775     51.228
       160.     4.8827      46.41
       160.     4.8866     45.611
       160.     4.8931     46.825
       160.     4.8956     50.849
       160.      4.903     80.608
       160.     4.9072     58.502
       160.     4.9112      49.26
       160.     4.9176     55.701
       160.     4.9243     40.834
       160.     4.9282     36.417
       160.     4.9307      40.44
       160.     4.9383     54.521
       160.     4.9435     57.342
       160.     4.9487     54.936
       160.     4.9538     60.169
       160.     4.9577     57.762
       160.      4.963     46.512
       160.     4.9695      46.52
       160.     4.9746     53.361
       160.     4.9773     46.128
       160.     4.9825      45.33
       160.     4.9876     48.151
       160.     4.9916     41.321
       160.     4.9968     44.544
       160.     5.0018     51.385
       160.     5.0071     48.979
       160.     5.0122     53.408
       160.     5.0174     49.796
       160.     5.0251     56.239
       160.     5.0288     72.726
       160.     5.0327     67.505
       160.     5.0402     90.832
       160.     5.0444     66.314
       160.     5.0496      66.32
       160.     5.0549     57.482
       160.     5.0575     59.094
       160.     5.0628     50.256
       160.     5.0689     78.405
       160.     5.0737     103.74
       160.      5.077     47.058
       160.     5.0847      57.52
       160.     5.0886     53.505
       160.     5.0952     48.287
       160.     5.0977     51.104
       160.     5.1028     58.347
       160.     5.1081     51.921
       160.     5.1159     45.499
       160.      5.117     59.973
       160.     5.1194     74.851
       160.     5.1234     70.434
       160.     5.1273     69.635
       160.     5.1297     83.709
       160.     5.1324     76.476
       160.     5.1402     72.063
       160.     5.1433     35.482
       160.     5.1491     88.155
       160.     5.1532     72.482
       160.     5.1598     61.635
       160.     5.1636     68.072
       160.     5.1698     84.965
       160.      5.174     66.879
       160.     5.1779     62.462
       160.     5.1818     58.849
       160.     5.1865     99.057
       160.     5.1879     86.998
       160.      5.196     68.917
       160.     5.1986     64.498
       160.     5.2037     74.153
       160.     5.2101     78.584
       160.     5.2129     63.712
       160.     5.2142     60.498
       160.     5.2207     62.114
       160.     5.2246     59.305
       160.     5.2284     62.124
       160.     5.2362     58.515
       160.     5.2414     62.944
       160.     5.2479     55.716
       160.     5.2504     64.162
       160.     5.2582     64.976
       160.     5.2622     58.146
       160.     5.2649     50.109
       160.     5.2702     42.075
       160.     5.2754     35.649
       160.     5.2804     53.747
       160.     5.2857     41.291
       160.     5.2919      63.41
       160.     5.2933     57.783
       160.      5.301     61.009
       160.     5.3076     50.565
       160.     5.3099     70.267
       160.     5.3176     75.906
       160.      5.323     62.645
       160.     5.3307     69.088
       160.      5.336     59.848
       160.     5.3413     47.392
       160.     5.3452     51.015
       160.      5.349     52.226
       160.     5.3594     55.053
       160.     5.3631     70.737
       160.     5.3669     73.556
       160.     5.3721      75.17
       160.     5.3798     77.592
       160.      5.385     79.207
       160.     5.3852      61.92
       160.     5.3865     58.303
       160.     5.3917     57.104
       160.     5.3982     61.534
       160.     5.4071     73.606
       160.     5.4124     62.356
       160.     5.4175     69.599
       160.     5.4226     74.028
       160.      5.428     61.572
       160.     5.4319     56.351
       160.     5.4371     54.347
       160.     5.4447     66.819
       160.     5.4449     49.935
       160.     5.4538     66.027
       160.     5.4554     43.113
       160.     5.4604      55.18
       160.     5.4669     54.787
       160.     5.4758     68.467
       160.     5.4835     74.507
       160.     5.4861     69.686
       160.     5.4904     45.168
       160.     5.4942     51.203
       160.     5.4966     62.463
       160.     5.5018     61.665
       160.     5.5084     49.211
       160.     5.5148     54.847
       160.     5.5188     50.832
       160.     5.5252     59.283
ENDDATA           1274
ENDSUBENT         1281
ENDENTRY             2
