ENTRY            F0259   20110225   20110803   20110627       F041
SUBENT        F0259001   20110225   20110803   20110627       F041
BIB                  8         23
TITLE      Study of Ir-190 via single-proton and single-neutron
           transfer reaction.
AUTHOR     (P.E.Garrett,D.G.Burke)
INSTITUTE  (1CANMCM)
           (2SWTFRS)
REFERENCE  (J,NP/A,581,267,1995)
           #doi:10.1016/0375-9474(94)00447-U
FACILITY   (VDGT,1CANMCM)
SAMPLE     All targets were produced by vacuum evaporation of
           metal samples onto carbon foil backings of thickness
           about 30 mu-g/cm2. Compositions of metal samples were
           indicated by supplier.
DETECTOR   (MAGSP)
           Products of reactions were analysed by Enge
           split-pole magnetic spectrograph and detected with
           photographic plates placed in focal plane.
           (SIBAR) Surface barrier detector was placed at an angle
           of 30 degrees  to beam direction. It recorded numbers
           of elastic-scattering events to determine absolute
           cross sections.
HISTORY    (20041125C)
           (20100216A) Author's name was corrected.
           (20110225A) doi code was corrected.
ENDBIB              23
NOCOMMON             0          0
ENDSUBENT           26
SUBENT        F0259002   20050418   20050831   20050926       F021
BIB                  4          9
REACTION   (77-IR-191(D,T)77-IR-190,PAR,DA)
SAMPLE     Targets enriched to either 94.66% or 96.19% 191Ir with
           the thickness of 30 and 45 mu-g/cm**2 respectively were
           used.
ERR-ANALYS (E-LVL-ERR) Uncertainty includes both statistical error
           on mean and error due to calibration of spectrograph.
           (DATA-ERR)  Uncertainty is addition in quadrature of
           statistical uncertainty plus reproducilibity error.
STATUS     (TABLE) Table 1
ENDBIB               9
COMMON               3          3
EN         EN-RSL     ANG
MEV        KEV        ADEG
 18.        5.7        45.
ENDCOMMON            3
DATA                 4         62
E-LVL-MEAN E-LVL-ERR  DATA       DATA-ERR
KEV        KEV        MU-B/SR    MU-B/SR
 0.0000                74.000     9.0000
 25.900    0.10000     176.00     19.000
 38.100    0.20000     23.000     4.0000
 83.000    0.10000     560.00     70.000
 144.00    0.20000     37.000     5.0000
 173.80    0.20000     260.00     60.000
 183.20    0.40000     90.000     12.000
 198.90    0.20000     140.00     16.000
 223.40    0.20000     477.00     50.000
 241.70    0.60000     13.000     3.0000
 266.80    0.30000     121.00     14.000
 278.90    0.30000     119.00     15.000
 284.90    0.30000     49.000     10.000
 313.40    0.40000     97.000     15.000
 331.70    0.40000     52.000     5.0000
 347.80    0.40000     282.00     30.000
 366.70    0.40000     106.00     15.000
 375.70    0.40000     39.000     8.0000
 408.00    0.40000     29.000     4.0000
 426.70    0.40000     48.000     6.0000
 441.70    0.50000     72.000     10.000
 452.30    0.60000     16.000     6.0000
 478.50    0.50000     84.000     11.000
 485.80    0.50000     210.00     23.000
 496.40    0.50000     144.00     15.000
 510.90    0.50000     188.00     21.000
 542.50    0.70000     36.000     5.0000
 589.30    0.60000     256.00     47.000
 602.70    0.60000     194.00     21.000
 612.80    0.70000     155.00     17.000
 619.10    0.70000     42.000     6.0000
 633.00    0.70000     15.000     4.0000
 655.30    0.70000     25.000     4.0000
 669.00    0.70000     73.000     10.000
 684.70    0.70000     150.00     17.000
 705.20    0.80000     21.000     4.0000
 722.10    0.70000     75.000     10.000
 743.50    0.70000     92.000     10.000
 755.70    0.80000     39.000     6.0000
 772.50     1.1000     29.000     5.0000
 787.50    0.90000     36.000     5.0000
 794.90    0.90000     16.000     4.0000
 806.20    0.90000     18.000     3.0000
 823.60    0.90000     24.000     5.0000
 835.90    0.90000     19.000     4.0000
 843.50    0.90000     32.000     6.0000
 862.00     1.0000     14.000     4.0000
 902.10     1.0000     11.000     3.0000
 929.40     1.0000     47.000     5.0000
 960.10     1.0000     20.000     4.0000
 971.20     1.0000     22.000     5.0000
 993.20     1.1000     51.000     7.0000
 1006.4     1.4000     15.000     3.0000
 1014.8     1.4000     15.000     3.0000
 1026.8     1.4000     30.000     5.0000
 1034.4     1.6000     17.000     3.0000
 1062.9     1.8000     11.000     3.0000
 1082.8     1.2000     8.0000     3.0000
 1092.4     1.5000     13.000     3.0000
 1115.6     1.7000     10.000     3.0000
 1135.9     1.9000     6.0000     4.0000
 1143.0     1.8000     13.000     5.0000
ENDDATA             64
ENDSUBENT           82
SUBENT        F0259003   20050418   20050831   20050926       F021
BIB                  4          8
REACTION   (77-IR-191(D,T)77-IR-190,PAR,DA)
SAMPLE     Targets enriched to either 94.66% or 96.19% 191Ir with
           the thickness of 30 and 45 mu-g/cm**2 respectively were
           used.
ERR-ANALYS (ANG-ERR-D)  Digitizing error
           (ERR-DIG)    Digitizing error
           (DATA-ERR)   Error from graphic bars
STATUS     (CURVE)FIG.4 a,b,c,d,e
ENDBIB               8
COMMON               4          3
EN         EN-RSL     ANG-ERR-D  ERR-DIG
MEV        KEV        ADEG       PER-CENT
 18.        5.7        0.1        0.1
ENDCOMMON            3
DATA                 4        878
E-LVL      ANG        DATA       DATA-ERR
KEV        ADEG       MU-B/SR    MU-B/SR
 0.0000     5.9550     13.406     3.7540
 0.0000     7.9788     13.288     4.0236
 0.0000     10.004     19.074     6.1334
 0.0000     12.505     29.381     6.2896
 0.0000     15.005     33.534     8.6861
 0.0000     17.506     44.857     8.6507
 0.0000     20.005     31.524     5.7494
 0.0000     22.626     66.113     11.658
 0.0000     25.126     63.820     11.715
 0.0000     30.126     57.916     9.9616
 0.0000     35.007     62.145     10.504
 0.0000     40.127     83.126     12.595
 0.0000     45.126     65.511     10.105
 0.0000     50.126     56.887     9.7846
 0.0000     60.125     42.519     7.4972
 0.0000     70.005     32.061     6.1831
 25.900     5.8990     140.23     24.171
 25.900     7.9252     197.90     26.055
 25.900     9.9496     218.08     28.747
 25.900     12.449     199.62     32.349
 25.900     14.946     135.31     19.174
 25.900     17.445     110.42     13.439
 25.900     19.946     121.68     19.719
 25.900     22.447     158.59     28.986
 25.900     24.948     185.91     24.477
 25.900     29.949     203.05     26.733
 25.900     35.067     161.34     19.637
 25.900     40.067     184.17     58.210
 25.900     44.948     177.74     21.633
 25.900     49.947     143.76     27.467
 25.900     59.944     91.577     13.905
 25.900     69.942     68.393     9.6914
 83.000     6.0456     404.90     41.012
 83.000     8.0577     442.00     57.748
 83.000     9.9519     536.05     70.036
 83.000     12.437     540.75     70.650
 83.000     15.040     411.99     53.828
 83.000     17.525     370.82     48.448
 83.000     20.010     367.56     48.023
 83.000     22.496     486.64     73.317
 83.000     24.982     595.39     71.910
 83.000     29.952     600.58     72.537
 83.000     34.922     495.14     59.802
 83.000     39.893     564.71     73.780
 83.000     44.863     564.66     79.398
 83.000     49.833     430.19     51.958
 83.000     59.773     319.20     35.429
 83.000     69.594     198.74     24.004
 144.00     6.0222     30.906     5.2838
 144.00     8.0484     36.827     7.0591
 144.00     10.075     49.181     7.4072
 144.00     12.574     32.283     4.9542
 144.00     15.075     29.056     4.8865
 144.00     17.456     23.957     4.2029
 144.00     20.077     25.921     3.5897
 144.00     22.579     30.350     5.5018
 144.00     25.082     36.164     5.4467
 144.00     30.086     43.089     6.4896
 144.00     35.087     32.541     5.9431
 144.00     39.971     33.696     5.4165
 144.00     45.094     36.777     5.9117
 144.00     50.096     30.320     10.064
 144.00     59.977     14.384     3.8013
 144.00     69.981     10.766     2.8452
 173.80     5.7815     100.90     14.065
 173.80     7.9304     108.15     16.154
 173.80     9.8422     132.10     15.818
 173.80     12.349     144.08     20.085
 173.80     14.855     139.13     18.021
 173.80     17.361     145.29     20.253
 173.80     19.868     150.41     18.011
 173.80     22.378     203.91     28.426
 173.80     25.004     230.28     43.768
 173.80     30.017     240.44     33.518
 173.80     34.910     257.68     28.358
 173.80     39.923     278.58     73.130
 173.80     44.934     257.51     64.266
 173.80     49.944     212.58     91.819
 173.80     59.966     188.07     29.979
 173.80     69.984     115.46     18.405
 183.20     6.0793     60.783     9.9161
 183.20     8.0910     97.368     12.904
 183.20     10.104     94.808     12.565
 183.20     12.472     108.34     17.674
 183.20     15.078     71.978     11.001
 183.20     17.565     61.885     8.8274
 183.20     20.052     59.726     9.1287
 183.20     22.541     23.486     9.0824
 183.20     25.024     93.160     18.127
 183.20     29.997     100.93     15.426
 183.20     35.090     84.496     12.915
 183.20     40.063     84.503     13.786
 183.20     45.036     93.191     14.244
 183.20     50.128     75.293     12.264
 183.20     60.076     56.661     9.2435
 183.20     70.024     29.616     5.4763
 198.90     5.9755     86.105     12.129
 198.90     7.9969     120.23     15.737
 198.90     10.018     145.86     17.649
 198.90     12.513     142.06     17.189
 198.90     15.008     113.04     15.924
 198.90     17.384     94.822     12.411
 198.90     19.998     93.987     23.087
 198.90     22.495     128.95     22.094
 198.90     24.991     157.82     20.656
 198.90     29.982     152.35     18.434
 198.90     34.972     116.02     16.971
 198.90     39.965     166.31     23.428
 198.90     45.074     141.97     19.999
 198.90     50.064     109.07     42.967
 198.90     60.045     76.732     10.043
 198.90     70.025     45.285     5.9272
 220.80     6.1701     303.33     40.276
 220.80     7.9480     365.74     56.007
 220.80     10.082     429.37     48.425
 220.80     12.573     457.04     56.094
 220.80     15.066     353.06     46.878
 220.80     17.557     337.72     41.450
 220.80     20.048     331.80     61.169
 220.80     22.537     437.33     49.323
 220.80     25.146     518.02     58.423
 220.80     30.009     546.57     89.337
 220.80     35.111     461.60     50.461
 220.80     40.092     527.69     70.066
 220.80     45.075     495.91     62.009
 220.80     50.059     400.58     43.790
 220.80     60.143     329.46     43.745
 220.80     70.111     207.44     23.395
 241.70     6.1298     10.624     2.7434
 241.70     8.0218     6.8459     2.5107
 241.70     10.047     12.661     3.2492
 241.70     12.536     10.998     3.1908
 241.70     15.032     15.355     3.3487
 241.70     17.516     9.5526     3.0628
 241.70     20.004     7.6003     1.9129
 241.70     22.626     18.456     3.6395
 241.70     24.994     13.449     3.2065
 241.70     30.095     13.562     3.3240
 241.70     34.953     8.9710     2.4325
 241.70     40.055     9.7911     4.2112
 241.70     45.041     12.965     2.8274
 241.70     50.141     12.512     2.0157
 241.70     60.108     14.517     2.9647
 266.80     6.0800     126.75     17.795
 266.80     8.1046     159.16     23.942
 266.80     10.129     186.33     24.307
 266.80     12.509     163.38     22.939
 266.80     15.008     122.37     15.963
 266.80     17.507     90.058     10.860
 266.80     20.127     97.439     14.212
 266.80     22.627     108.23     15.195
 266.80     25.009     143.24     18.685
 266.80     30.128     163.33     26.223
 266.80     35.127     115.05     13.276
 266.80     40.009     127.79     16.670
 266.80     45.128     124.46     13.793
 266.80     50.127     91.594     15.388
 266.80     60.245     74.869     10.511
 266.80     70.243     37.147     7.3048
 278.90     5.9891     59.330     11.869
 278.90     8.0078     83.242     15.788
 278.90     9.9074     96.482     16.323
 278.90     12.400     93.184     17.674
 278.90     15.010     72.437     12.075
 278.90     17.385     82.511     11.479
 278.90     19.995     56.307     23.725
 278.90     22.371     120.90     22.744
 278.90     24.863     105.21     13.601
 278.90     29.967     101.61     25.977
 278.90     34.952     113.75     14.755
 278.90     39.819     118.79     16.525
 278.90     44.923     119.81     16.668
 278.90     49.907     77.608     14.720
 278.90     59.877     89.162     11.526
 278.90     69.964     43.361     7.5406
 284.90     5.9772     33.083     9.5630
 284.90     7.8969     36.107     12.587
 284.90     9.8167     49.906     10.153
 284.90     12.336     50.787     13.066
 284.90     14.856     39.753     9.1760
 284.90     17.374     20.808     4.3774
 284.90     19.895     41.168     29.789
 284.90     22.414     36.105     9.5224
 284.90     24.934     50.342     8.8132
 284.90     29.853     60.492     20.742
 284.90     34.891     36.420     17.850
 284.90     39.931     63.749     12.073
 284.90     44.970     49.464     10.063
 284.90     49.889     46.934     13.857
 284.90     59.966     21.171     7.9706
 284.90     69.924     17.772     5.1372
 313.40     5.9238     31.767     5.5124
 313.40     7.8427     47.393     7.2439
 313.40     10.003     40.386     7.1741
 313.40     12.402     50.438     8.2286
 313.40     14.921     50.440     7.7095
 313.40     17.440     56.620     8.0765
 313.40     19.960     55.131     8.4267
 313.40     22.479     94.823     25.969
 313.40     24.998     109.32     15.594
 313.40     30.037     93.991     13.898
 313.40     35.076     89.909     19.811
 313.40     39.995     102.74     19.991
 313.40     44.914     100.04     17.036
 313.40     49.953     73.293     16.150
 313.40     59.911     66.472     11.535
 313.40     69.990     48.272     20.454
 331.70     5.9610     4.6505     2.6262
 331.70     7.8836     5.6999     2.2881
 331.70     9.9271     8.7932     3.4358
 331.70     12.451     13.930     3.0568
 331.70     14.975     19.154     3.5270
 331.70     17.498     25.198     3.8992
 331.70     20.020     20.924     3.6126
 331.70     22.544     36.214     5.6039
 331.70     24.947     34.340     5.0560
 331.70     29.992     35.261     5.4564
 331.70     35.037     38.862     7.9864
 331.70     40.083     50.225     9.1948
 331.70     45.008     52.492     8.5205
 331.70     50.053     43.587     6.1864
 331.70     60.022     43.195     7.0114
 331.70     69.990     24.084     4.1582
 347.80     5.8683     182.34     27.050
 347.80     7.7845     236.33     28.111
 347.80     9.9401     269.05     39.914
 347.80     12.455     262.16     41.507
 347.80     14.970     200.53     25.801
 347.80     17.485     157.41     24.922
 347.80     19.880     168.69     23.358
 347.80     22.275     224.38     33.287
 347.80     24.790     288.32     39.923
 347.80     29.820     285.84     34.001
 347.80     34.850     232.28     34.459
 347.80     39.880     269.05     39.914
 347.80     44.790     280.94     41.678
 347.80     49.940     220.53     75.359
 347.80     59.880     154.71     21.423
 347.80     69.820     111.39     15.424
 366.70     6.0132     30.681     5.9143
 366.70     7.8164     37.576     5.6908
 366.70     10.101     54.408     9.3541
 366.70     12.625     54.888     10.006
 366.70     15.029     56.358     9.1098
 366.70     17.553     56.357     9.6891
 366.70     20.077     66.044     10.002
 366.70     22.601     84.528     20.837
 366.70     25.126     97.328     14.740
 366.70     30.054     108.18     17.486
 366.70     35.101     95.618     15.456
 366.70     40.150     112.05     27.621
 366.70     45.077     107.22     20.668
 366.70     50.125     78.062     17.543
 366.70     60.221     65.440     10.578
 366.70     70.196     40.297     6.2135
 375.70     6.0209     33.697     6.8349
 375.70     7.9405     33.995     5.4819
 375.70     9.9799     42.355     7.7027
 375.70     12.499     50.058     7.5631
 375.70     15.019     34.599     7.0178
 375.70     17.539     29.795     5.1102
 375.70     20.058     23.915     4.3492
 375.70     22.577     41.986     14.458
 375.70     25.097     39.480     8.8504
 375.70     30.136     40.894     6.5944
 375.70     35.055     32.536     9.8493
 375.70     40.094     32.537     5.9583
 375.70     45.133     39.483     8.8511
 375.70     50.052     31.691     4.1521
 375.70     60.130     23.502     4.9673
 375.70     70.089     10.283     2.9211
 408.00     6.0063     8.8979     2.5878
 408.00     7.9194     10.612     2.5367
 408.00     9.8329     15.097     3.5553
 408.00     12.344     18.488     4.2946
 408.00     14.854     19.150     4.0967
 408.00     17.365     20.548     3.4713
 408.00     19.875     14.572     3.0853
 408.00     22.267     26.066     4.4803
 408.00     24.898     34.556     5.5843
 408.00     29.798     24.940     4.9311
 408.00     34.820     30.542     4.9356
 408.00     39.841     36.106     6.9582
 408.00     44.861     30.004     5.4684
 408.00     49.882     22.432     2.9498
 408.00     59.923     20.357     4.4511
 408.00     69.964     11.379     2.5659
 426.70     5.9510     35.753     7.7182
 426.70     7.9773     46.676     7.6101
 426.70     10.004     60.397     9.8472
 426.70     12.389     51.933     7.9330
 426.70     14.895     37.385     5.5252
 426.70     17.401     31.301     5.4282
 426.70     19.906     26.206     4.2664
 426.70     22.409     33.018     5.8623
 426.70     24.912     49.691     8.1017
 426.70     29.921     45.069     8.3298
 426.70     34.930     42.735     6.9676
 426.70     39.939     49.708     8.1045
 426.70     44.948     48.838     6.9623
 426.70     49.958     39.817     6.0822
 426.70     59.857     29.970     5.1975
 426.70     69.876     26.708     4.1485
 441.70     6.0845     5.9137     2.9756
 441.70     8.1088     6.1806     2.1756
 441.70     10.138     9.9684     3.2760
 441.70     12.515     6.9942     2.3810
 441.70     14.894     5.7046     2.0080
 441.70     17.520     10.507     2.0356
 441.70     20.146     19.182     3.9200
 441.70     22.528     20.226     4.5684
 441.70     25.029     21.516     3.9643
 441.70     30.034     33.487     6.6497
 441.70     35.041     61.126     22.895
 441.70     40.042     68.560     11.137
 441.70     44.924     72.278     11.741
 441.70     49.922     61.066     14.245
 441.70     59.920     52.964     8.2012
 441.70     69.917     39.518     11.540
 478.50     9.9476     14.497     5.9478
 478.50     12.336     22.934     6.7130
 478.50     14.957     24.153     5.1994
 478.50     17.348     48.692     7.0265
 478.50     19.847     40.944     5.9083
 478.50     22.356     71.865     28.370
 478.50     24.857     71.234     12.862
 478.50     29.859     67.024     11.624
 478.50     34.862     66.424     11.520
 478.50     39.748     81.739     10.574
 478.50     44.871     85.327     10.392
 478.50     49.872     70.506     26.711
 478.50     59.995     59.257     8.5510
 478.50     69.874     32.304     10.233
 479.00     6.1105     57.709     19.458
 479.00     8.1356     39.270     20.766
 479.00     10.044     14.357     5.9381
 479.00     12.661     22.830     6.4577
 479.00     15.161     23.852     5.5066
 479.00     17.659     48.033     7.2180
 479.00     20.159     40.678     6.8280
 479.00     22.657     70.597     28.097
 479.00     25.157     69.985     12.255
 479.00     30.277     64.692     10.386
 479.00     35.158     63.021     10.750
 479.00     40.276     79.824     11.632
 479.00     45.157     84.134     11.800
 479.00     50.157     67.610     23.958
 479.00     60.158     56.767     8.6947
 479.00     70.041     31.044     9.7343
 485.80     6.0513     356.60     53.902
 485.80     8.0800     307.09     55.873
 485.80     10.107     315.33     44.485
 485.80     12.612     318.16     48.091
 485.80     15.119     216.06     34.857
 485.80     17.507     165.96     21.753
 485.80     20.011     181.24     29.239
 485.80     22.635     167.47     53.753
 485.80     25.136     253.26     35.727
 485.80     30.024     310.13     50.032
 485.80     35.036     222.05     31.325
 485.80     40.045     216.32     26.211
 485.80     45.054     216.37     28.411
 485.80     50.063     205.29     31.031
 485.80     60.085     126.60     15.651
 485.80     70.107     79.456     22.579
 496.40     5.9101     142.76     24.496
 496.40     7.9422     264.27     73.426
 496.40     9.9700     229.55     39.389
 496.40     12.476     217.73     54.865
 496.40     14.860     137.79     17.035
 496.40     17.364     106.75     15.059
 496.40     19.871     121.80     15.965
 496.40     22.377     126.15     20.352
 496.40     24.885     173.15     26.172
 496.40     29.898     202.83     26.586
 496.40     34.908     143.89     15.551
 496.40     39.920     167.08     25.255
 496.40     44.932     147.70     18.260
 496.40     49.943     123.85     19.065
 496.40     59.964     82.603     10.846
 496.40     69.986     56.072     13.007
 510.90     6.0171     201.11     28.748
 510.90     8.0274     258.09     31.685
 510.90     10.038     302.99     37.197
 510.90     12.524     277.20     39.624
 510.90     15.130     194.13     23.832
 510.90     17.499     140.88     18.711
 510.90     19.983     148.63     19.740
 510.90     22.469     151.32     20.097
 510.90     24.951     225.94     32.298
 510.90     29.921     240.52     34.382
 510.90     35.012     182.52     28.417
 510.90     39.864     182.55     22.411
 510.90     44.834     187.53     21.986
 510.90     49.924     161.20     29.862
 510.90     59.749     106.10     12.439
 510.90     69.693     62.751     10.259
 542.50     6.1233     6.6150     2.0407
 542.50     8.0337     3.5240     2.3051
 542.50     10.058     8.0636     2.2832
 542.50     12.683     5.8857     1.9241
 542.50     15.185     12.309     2.9959
 542.50     17.690     9.3978     2.1606
 542.50     20.195     8.3608     1.9201
 542.50     22.699     10.284     2.6417
 542.50     25.202     15.142     3.0500
 542.50     30.211     16.274     2.8017
 542.50     35.338     23.325     4.0158
 542.50     40.227     27.183     4.0643
 542.50     45.235     35.931     5.9172
 542.50     50.245     20.571     2.9176
 542.50     60.263     23.337     4.3507
 542.50     70.163     13.977     4.0474
 589.30     6.2142     193.63     27.180
 589.30     8.2351     254.05     48.627
 589.30     10.258     284.71     39.965
 589.30     12.757     294.90     79.739
 589.30     15.261     217.09     97.406
 589.30     17.644     168.43     22.019
 589.30     20.262     185.48     28.430
 589.30     22.762     188.79     26.500
 589.30     25.259     243.40     44.061
 589.30     30.257     308.41     37.186
 589.30     35.260     227.06     31.873
 589.30     40.259     247.92     32.335
 589.30     45.259     252.37     53.618
 589.30     50.261     206.39     28.971
 589.30     60.147     132.12     14.216
 589.30     70.150     95.613     13.421
 602.70     6.0510     20.027     5.4240
 602.70     8.0770     20.563     4.8966
 602.70     10.099     44.117     9.3052
 602.70     12.721     47.329     10.077
 602.70     15.104     56.411     9.0737
 602.70     17.723     89.814     13.536
 602.70     20.225     105.19     13.777
 602.70     22.844     197.85     25.858
 602.70     25.347     181.25     21.898
 602.70     30.353     173.50     22.675
 602.70     35.359     170.50     23.983
 602.70     40.365     189.46     24.762
 602.70     45.371     192.85     25.204
 602.70     50.378     148.24     41.093
 602.70     60.390     140.68     18.386
 602.70     70.285     97.350     14.672
 612.80     6.3064     48.045     10.046
 612.80     8.2072     52.379     9.3339
 612.80     10.226     59.623     16.299
 612.80     12.722     63.891     14.575
 612.80     15.221     36.149     9.6544
 612.80     17.717     35.228     8.9589
 612.80     20.212     37.425     7.5227
 612.80     22.707     38.080     20.263
 612.80     25.199     67.902     12.226
 612.80     30.190     61.763     16.884
 612.80     35.183     49.357     12.233
 612.80     40.291     63.407     9.3895
 612.80     45.164     56.200     8.9100
 612.80     50.156     53.374     8.4619
 612.80     60.141     32.646     6.7863
 612.80     70.123     31.550     7.5979
 619.10     5.9968     144.63     19.219
 619.10     8.0330     158.11     24.231
 619.10     10.070     195.81     32.030
 619.10     12.465     195.80     28.004
 619.10     15.099     158.09     28.146
 619.10     17.493     109.70     16.812
 619.10     20.127     99.448     25.339
 619.10     22.643     118.85     24.460
 619.10     25.278     131.08     26.978
 619.10     30.189     166.73     27.219
 619.10     35.218     147.16     20.688
 619.10     40.248     123.12     15.406
 619.10     45.278     155.21     25.389
 619.10     50.428     134.57     27.696
 619.10     60.487     102.98     24.859
 619.10     70.544     54.202     8.4428
 633.00     6.1601     26.682     4.6903
 633.00     8.1780     36.293     5.5808
 633.00     10.077     48.935     10.437
 633.00     12.572     52.504     6.8736
 633.00     15.070     36.303     6.5968
 633.00     17.567     30.724     6.5529
 633.00     20.063     31.272     5.0387
 633.00     22.677     31.551     4.4455
 633.00     25.053     32.397     6.6174
 633.00     30.160     53.473     9.1640
 633.00     35.034     39.670     5.9889
 633.00     40.144     38.987     6.5699
 633.00     45.135     42.577     6.4277
 633.00     50.127     33.887     4.9578
 633.00     60.110     31.599     5.7421
 633.00     70.095     20.552     4.1652
 655.30     6.1775     22.526     4.6901
 655.30     8.1984     39.022     8.1248
 655.30     10.222     37.306     7.3634
 655.30     12.723     31.725     4.9899
 655.30     15.225     23.998     4.3137
 655.30     17.726     19.335     6.0897
 655.30     20.227     14.758     4.6481
 655.30     22.724     29.796     4.6865
 655.30     25.224     26.746     4.6090
 655.30     30.221     45.101     10.053
 655.30     35.343     26.996     4.6522
 655.30     40.343     27.244     4.8972
 655.30     45.344     25.354     4.3693
 655.30     50.345     19.008     4.1033
 655.30     60.345     18.341     4.8381
 655.30     70.348     11.695     2.8490
 669.00     6.0715     26.306     4.7466
 669.00     8.0953     28.456     5.4292
 669.00     10.119     37.958     6.0735
 669.00     12.619     41.421     7.0490
 669.00     15.119     37.301     8.8449
 669.00     17.738     40.704     7.4054
 669.00     20.119     44.418     5.7751
 669.00     22.738     65.794     8.5543
 669.00     25.238     79.727     12.757
 669.00     30.238     74.348     10.403
 669.00     35.238     73.061     10.953
 669.00     40.238     80.426     12.869
 669.00     45.357     72.426     13.692
 669.00     50.357     57.216     13.947
 669.00     60.357     50.193     8.5417
 669.00     70.357     41.784     5.8467
 684.70     6.2738     146.96     20.828
 684.70     8.2895     173.83     28.175
 684.70     10.305     230.65     30.372
 684.70     12.677     218.75     65.130
 684.70     15.170     159.16     19.374
 684.70     17.663     107.90     14.208
 684.70     20.154     119.98     17.004
 684.70     22.645     118.93     16.855
 684.70     25.253     159.20     22.563
 684.70     30.235     170.89     29.461
 684.70     35.219     128.82     14.409
 684.70     40.319     149.72     16.747
 684.70     45.182     151.07     85.233
 684.70     50.165     121.14     42.571
 684.70     60.131     88.158     10.258
 684.70     70.098     54.721     11.994
 691.00     6.1102     35.325     11.675
 691.00     8.1280     27.246     5.9996
 691.00     10.151     35.318     8.5422
 691.00     12.644     27.956     8.6860
 691.00     15.139     26.083     5.6123
 691.00     17.634     25.193     5.0756
 691.00     20.127     18.289     3.8104
 691.00     25.124     35.293     6.8654
 691.00     30.114     32.360     5.8398
 691.00     35.105     32.633     6.3480
 691.00     40.216     37.147     8.9712
 691.00     45.205     27.198     7.4513
 691.00     50.193     20.794     8.6336
 691.00     60.179     30.152     5.8654
 691.00     70.155     14.824     8.3644
 705.20     6.2314     15.992     4.7239
 705.20     8.2649     16.132     4.0470
 705.20     10.298     16.416     3.6801
 705.20     12.931     23.709     4.7839
 705.20     15.442     17.149     3.4903
 705.20     17.834     15.170     3.2973
 705.20     20.344     9.2110     2.6062
 705.20     22.978     17.449     3.6725
 705.20     25.492     27.028     4.7339
 705.20     30.635     27.025     6.4220
 705.20     35.539     25.865     7.3182
 705.20     40.562     22.287     4.0637
 705.20     45.586     20.239     3.9775
 705.20     50.608     14.384     3.3218
 705.20     60.537     16.399     3.1071
 705.20     70.584     13.289     2.7048
 722.10     6.5169     54.164     8.2591
 722.10     8.5289     57.632     8.7878
 722.10     10.541     70.672     11.502
 722.10     13.027     82.902     13.492
 722.10     15.511     50.895     7.8934
 722.10     17.877     46.162     6.1034
 722.10     20.481     45.348     14.380
 722.10     22.967     55.608     10.207
 722.10     25.452     66.399     10.125
 722.10     30.423     77.885     12.676
 722.10     35.393     62.390     10.154
 722.10     40.364     73.183     13.434
 722.10     45.216     71.255     12.335
 722.10     50.185     42.974     6.1154
 722.10     60.126     45.718     6.9712
 722.10     69.947     31.774     5.5003
 743.50     6.2866     55.189     8.2825
 743.50     8.3130     70.504     12.011
 743.50     10.338     96.591     12.571
 743.50     12.850     81.122     39.002
 743.50     15.365     60.285     9.2231
 743.50     17.875     57.220     13.579
 743.50     20.386     51.088     7.6670
 743.50     22.891     62.477     9.3763
 743.50     25.396     76.406     22.540
 743.50     30.410     92.650     16.871
 743.50     35.431     80.602     14.559
 743.50     40.457     53.948     9.1903
 743.50     45.465     88.825     11.560
 743.50     50.367     73.326     7.3988
 743.50     60.415     39.466     18.795
 743.50     70.337     28.592     5.4097
 755.70     6.4312     28.360     5.6406
 755.70     8.4606     30.391     5.7312
 755.70     10.489     38.710     6.9748
 755.70     12.877     35.817     6.0252
 755.70     15.505     29.878     4.7259
 755.70     17.895     22.084     5.1881
 755.70     20.401     29.626     5.5868
 755.70     23.028     28.870     6.3973
 755.70     25.415     32.026     6.8803
 755.70     30.547     46.040     7.7450
 755.70     35.564     37.104     7.2065
 755.70     40.579     35.542     9.4989
 755.70     45.593     37.438     7.0601
 755.70     50.608     38.097     5.2703
 755.70     60.519     33.478     5.3116
 755.70     70.434     16.493     3.9830
 772.50     6.4869     8.5891     3.4089
 772.50     8.2823     5.8652     2.1674
 772.50     10.437     12.140     3.1609
 772.50     13.070     11.926     3.0268
 772.50     15.344     8.7429     2.6117
 772.50     17.977     11.821     3.7489
 772.50     20.490     12.033     3.2896
 772.50     23.004     9.2210     2.7053
 772.50     25.637     16.125     3.4346
 772.50     30.664     21.229     5.9401
 772.50     35.571     24.905     4.5724
 772.50     40.717     26.267     8.8013
 772.50     45.625     27.703     5.3782
 772.50     50.652     21.997     2.9108
 772.50     60.586     13.746     3.9336
 772.50     70.640     13.992     3.2695
 787.50     6.5229     28.222     5.7502
 787.50     8.4371     25.386     5.1722
 787.50     10.588     46.689     9.9041
 787.50     13.221     33.678     6.5053
 787.50     15.494     32.510     9.2673
 787.50     18.007     20.181     4.6967
 787.50     20.638     29.503     6.4629
 787.50     23.031     23.246     4.6048
 787.50     25.542     29.506     6.3267
 787.50     30.684     51.470     10.918
 787.50     35.590     25.623     4.7095
 787.50     40.614     28.239     7.3238
 787.50     45.637     34.908     6.0137
 787.50     50.423     20.015     3.2418
 787.50     60.472     14.958     3.0685
 787.50     70.402     9.0438     2.4044
 794.90     6.4812     16.320     3.9997
 794.90     8.6155     21.244     5.2182
 794.90     10.516     18.298     7.8699
 794.90     13.006     24.241     4.7803
 794.90     15.505     11.590     3.3624
 794.90     17.998     11.389     3.0883
 794.90     20.487     15.766     4.3756
 794.90     22.983     10.713     5.3613
 794.90     25.475     12.440     3.4523
 794.90     30.572     26.027     6.9679
 794.90     35.443     16.486     4.0404
 794.90     40.543     25.811     5.6289
 794.90     45.413     15.924     3.7965
 794.90     50.635     17.698     3.0324
 794.90     60.489     12.680     3.0233
 794.90     70.463     8.6187     2.3919
 806.20     6.2464     3.8794     1.8112
 806.20     8.3825     7.2134     2.1961
 806.20     10.406     6.8407     2.4090
 806.20     12.906     5.4340     2.3242
 806.20     17.903     5.5325     1.9164
 806.20     20.286     3.8479     2.2471
 806.20     23.011     13.540     2.9746
 806.20     25.509     13.784     3.3103
 806.20     30.393     7.1575     2.7606
 806.20     35.503     13.913     3.1524
 806.20     40.499     15.616     6.3568
 806.20     45.614     17.998     3.5757
 806.20     50.383     6.1628     1.2679
 806.20     60.492     9.6021     2.3703
 806.20     70.373     4.4842     1.5533
 823.60     6.4302     8.4252     2.4420
 823.60     8.4516     8.5001     2.3679
 823.60     10.352     11.159     2.8603
 823.60     12.850     9.6978     2.6890
 823.60     15.345     13.186     3.5723
 823.60     17.844     10.224     2.5035
 823.60     20.460     10.406     2.7523
 823.60     22.953     19.237     4.5106
 823.60     25.330     19.752     3.9977
 823.60     30.442     23.341     4.7240
 823.60     35.437     21.572     3.9147
 823.60     40.430     25.943     6.0829
 823.60     45.425     22.948     5.1330
 823.60     50.423     12.201     3.7616
 823.60     60.411     11.993     3.0942
 823.60     70.397     15.611     3.2937
 835.90     6.4421     14.513     3.1987
 835.90     8.3449     11.388     2.7564
 835.90     10.484     26.610     5.8648
 835.90     12.981     19.823     5.4346
 835.90     15.479     18.337     5.4401
 835.90     17.976     17.110     4.4738
 835.90     20.473     16.816     3.5294
 835.90     22.970     17.561     5.8718
 835.90     25.467     18.338     3.9486
 835.90     30.579     29.273     5.5356
 835.90     35.454     19.151     4.2209
 835.90     40.567     31.923     6.3669
 835.90     45.561     18.823     3.7950
 835.90     50.555     23.989     3.8049
 835.90     60.425     12.422     3.7877
 835.90     70.413     9.9184     2.8428
 843.50     6.4900     14.207     3.6049
 843.50     8.2761     13.235     2.9103
 843.50     10.180     15.119     4.2295
 843.50     12.916     21.180     5.7891
 843.50     15.419     12.114     4.4757
 843.50     17.916     21.183     4.7933
 843.50     20.416     21.755     4.4803
 843.50     22.915     26.445     6.5343
 843.50     25.533     35.126     5.7162
 843.50     30.533     34.513     6.6986
 843.50     35.534     27.900     4.3268
 843.50     40.533     32.445     6.2207
 843.50     45.533     31.598     6.0582
 843.50     50.535     24.435     3.7894
 843.50     60.534     27.187     4.7059
 843.50     70.536     16.697     3.5557
 862.00     6.4809     7.1443     2.1667
 862.00     8.3862     4.2479     1.7225
 862.00     10.517     7.0213     2.2570
 862.00     12.893     5.9396     2.2817
 862.00     17.992     8.5279     2.6901
 862.00     20.374     4.2513     2.1509
 862.00     23.092     11.512     9.0059
 862.00     25.469     9.0752     2.4089
 862.00     30.455     8.6868     2.7402
 862.00     35.554     12.583     3.1755
 862.00     40.540     12.151     3.3812
 862.00     45.642     13.751     3.2876
 862.00     50.399     6.6773     1.4141
 862.00     60.484     8.9373     2.3723
 862.00     70.461     5.0876     2.0630
 902.10     15.266     4.9227     1.9346
 902.10     17.751     4.5099     1.8434
 902.10     20.118     3.6549     1.4557
 902.10     22.722     7.8996     4.0475
 902.10     25.207     6.4020     2.0474
 902.10     30.177     7.6276     2.4393
 902.10     35.266     9.3299     2.6413
 902.10     40.237     8.5475     2.2566
 902.10     45.207     11.116     2.5685
 902.10     50.177     9.5783     1.4683
 902.10     60.118     9.9198     2.4246
 902.10     70.059     4.7951     1.6180
 929.40     6.3641     23.213     5.7031
 929.40     8.2662     26.031     6.0464
 929.40     10.286     35.749     6.5147
 929.40     12.903     34.210     6.5204
 929.40     15.400     33.615     5.4309
 929.40     17.779     26.499     4.2813
 929.40     20.394     29.717     4.8017
 929.40     22.890     41.904     6.7710
 929.40     25.386     49.543     9.5468
 929.40     30.380     49.987     8.0770
 929.40     35.375     43.803     7.7184
 929.40     40.487     53.648     9.2202
 929.40     45.482     47.012     5.7052
 929.40     50.476     37.063     5.1556
 929.40     60.465     31.081     7.4287
 929.40     70.337     16.055     4.4663
 960.10     6.2469     12.989     3.0911
 960.10     8.2675     17.267     5.0811
 960.10     10.289     18.214     4.8725
 960.10     12.787     12.991     3.8891
 960.10     15.283     16.964     4.0882
 960.10     17.900     12.317     4.9640
 960.10     20.278     10.589     2.7633
 960.10     22.894     13.109     2.8900
 960.10     25.390     19.217     3.9467
 960.10     30.384     17.740     4.7458
 960.10     35.378     19.392     4.1401
 960.10     40.490     21.578     3.9730
 960.10     45.485     19.920     3.6853
 960.10     50.479     17.126     4.9118
 960.10     60.350     8.5589     2.3452
 960.10     70.337     12.661     3.7111
 971.20     6.1196     6.6317     2.3428
 971.20     8.2590     7.4282     3.1013
 971.20     10.391     19.549     4.3665
 971.20     12.775     10.438     3.8040
 971.20     15.271     10.716     3.0881
 971.20     17.769     10.171     2.8677
 971.20     20.264     13.328     2.6096
 971.20     22.874     24.322     4.0685
 971.20     25.372     21.531     4.5513
 971.20     30.484     24.331     4.9339
 971.20     35.482     15.739     4.7294
 971.20     40.356     17.478     3.9040
 971.20     45.467     22.121     4.7906
 971.20     50.462     20.457     3.1223
 971.20     60.333     15.895     3.2232
 971.20     70.325     10.195     2.4140
 993.20     6.0849     8.0010     2.4602
 993.20     8.1053     13.059     2.9261
 993.20     10.244     19.022     3.8699
 993.20     12.738     16.976     4.0325
 993.20     15.352     27.707     5.2473
 993.20     17.846     30.505     4.8965
 993.20     20.340     29.974     5.1120
 993.20     22.954     44.433     7.1248
 993.20     25.449     52.009     8.3396
 993.20     30.437     50.658     8.6395
 993.20     35.425     51.099     8.1937
 993.20     40.413     54.322     8.7105
 993.20     45.401     49.767     8.9995
 993.20     50.389     51.087     7.6755
 993.20     60.365     40.333     6.4674
 993.20     70.221     30.480     6.7935
 1006.4     6.2143     11.975     2.9323
 1006.4     8.2314     6.0381     1.9703
 1006.4     10.255     12.185     3.1441
 1006.4     12.751     13.538     3.1342
 1006.4     15.245     9.1200     3.2912
 1006.4     17.742     14.269     3.0107
 1006.4     20.236     9.5280     2.5202
 1006.4     22.852     13.654     5.0037
 1006.4     25.347     13.653     2.9750
 1006.4     30.339     16.853     4.2382
 1006.4     35.211     14.138     3.4621
 1006.4     40.320     13.178     4.5307
 1006.4     45.312     15.030     3.4796
 1006.4     50.302     10.861     2.3666
 1006.4     60.284     11.445     3.6668
 1014.8     6.3094     11.273     2.7965
 1014.8     8.3332     9.6029     2.5096
 1014.8     10.238     9.1030     2.7855
 1014.8     12.857     10.312     2.8959
 1014.8     15.238     7.2208     3.3160
 1014.8     20.238     5.1930     1.9832
 1014.8     22.857     11.579     4.9142
 1014.8     25.357     17.289     3.4522
 1014.8     30.357     9.6889     3.2578
 1014.8     35.357     13.593     3.2804
 1014.8     40.476     13.961     5.0186
 1014.8     45.357     15.399     3.3997
 1014.8     50.476     8.8630     1.8950
 1014.8     60.595     15.399     3.6116
 1026.8     6.1413     7.3966     2.2064
 1026.8     8.0416     7.2694     2.0920
 1026.8     10.296     11.039     2.8271
 1026.8     12.790     11.040     2.8273
 1026.8     15.167     8.6531     3.4293
 1026.8     17.775     18.938     4.0950
 1026.8     20.273     9.9472     3.0452
 1026.8     22.880     30.301     7.1642
 1026.8     25.374     27.537     4.1964
 1026.8     30.246     15.918     4.9688
 1026.8     35.352     21.216     4.4425
 1026.8     40.340     19.116     4.1335
 1026.8     45.326     29.798     4.3201
 1026.8     50.316     23.562     6.3368
 1026.8     60.293     19.462     4.2085
 1034.4     8.0044     3.3464     1.6552
 1034.4     15.129     8.0967     3.4717
 1034.4     17.622     8.5327     2.2508
 1034.4     20.235     12.108     3.3485
 1034.4     22.728     15.880     3.9824
 1034.4     25.220     14.422     3.5219
 1034.4     30.207     21.192     5.1752
 1034.4     35.190     10.803     2.9189
 1034.4     40.296     21.942     5.3585
 1034.4     45.280     17.173     3.0069
 1034.4     50.264     12.753     2.9442
 1034.4     60.235     12.862     2.9694
ENDDATA            880
ENDSUBENT          897
SUBENT        F0259004   20050418   20050831   20050926       F021
BIB                  5         10
REACTION   (77-IR-191(D,T)77-IR-190,PAR,DA)
SAMPLE     Targets enriched to either 94.66% or 96.19% 191Ir with
           the thickness of 30 and 45 mu-g/cm**2 respectively were
           used.
COMMENT    For the angles 6.0,8.1,10.1,12.6,15.1 sross-section
           values are out of the plot area.
ERR-ANALYS (ANG-ERR-D)  Digitizing error
           (ERR-DIG)    Digitizing error
           (DATA-ERR)   Error from graphic bars
STATUS     (CURVE)FIG.4a
ENDBIB              10
COMMON               5          3
EN         E-LVL      EN-RSL     ANG-ERR-D  ERR-DIG
MEV        KEV        KEV        ADEG       PER-CENT
 18.        38.1       5.7        0.1        0.1
ENDCOMMON            3
DATA                 3         11
ANG        DATA       DATA-ERR
ADEG       MU-B/SR    MU-B/SR
 17.592     1.1869    0.10099
 20.085     15.646     7.1752
 22.589     10.866     5.0870
 25.212     10.211     4.2752
 30.096     21.747     4.0224
 35.103     16.656     3.7862
 40.109     14.449     3.5783
 45.113     23.151     4.1136
 50.118     27.172     5.0016
 60.251     18.378     3.5319
 70.144     15.115     3.4304
ENDDATA             13
ENDSUBENT           32
SUBENT        F0259005   20050418   20050831   20050926       F021
BIB                  4          9
REACTION   (76-OS-189(A,T)77-IR-190,PAR,DA)
SAMPLE     Target of 189Os was approximately 33 mu-g/cm2 and had
           composition of 0.06% 186Os,0.41% 187Os, 1.23% 188Os,
           81.14% 189Os, 14.10% 190Os and 3.06% 192Os.
ERR-ANALYS (E-LVL-ERR) Uncertainty includes both statistical error
           on mean and error due to calibration of spectrograph.
           (DATA-ERR)  Uncertainty is addition in quadrature of
           statistical uncertainty plus reproducilibity error.
STATUS     (TABLE) Table 2
ENDBIB               9
COMMON               3          3
EN         EN-RSL     ANG
MEV        KEV        ADEG
 30.        10.        50.
ENDCOMMON            3
DATA                 4         32
E-LVL-MEAN E-LVL-ERR  DATA       DATA-ERR
KEV        KEV        MU-B/SR    MU-B/SR
 26.700    0.80000     7.3000     9.0000
 84.000    0.80000     57.000     6.0000
 145.80    0.80000     25.000     3.0000
 173.50    0.80000     11.800     14.000
 183.80    0.80000     9.8000     14.000
 199.70    0.90000     3.8000     5.0000
 225.90    0.80000     8.5000     10.000
 244.70    0.80000     9.9000     14.000
 268.80     1.1000     5.7000     8.0000
 282.90     1.6000     7.1000     10.000
 313.30    0.80000     31.000     4.0000
 380.60    0.80000     25.000     4.0000
 429.00     2.1000     4.0000     6.0000
 441.60    0.80000     3.6000     7.0000
 456.60     1.4000     4.1000     13.000
 465.10     1.6000     19.000     3.0000
 497.80    0.90000     2.2000     6.0000
 511.10     1.3000     3.2000     7.0000
 551.00    0.90000     1.9000     4.0000
 589.90     1.3000     5.0000     6.0000
 622.20     1.3000     4.1000     6.0000
 671.50     1.3000     2.5000     4.0000
 694.00    0.90000     2.2000     3.0000
 717.00     1.7000     9.1000     11.000
 741.90     1.3000     8.5000     12.000
 758.90    0.90000     34.000     5.0000
 804.90     1.3000     19.000     2.0000
 817.70    0.90000     21.000     2.0000
 847.90    0.90000     11.000     1.0000
 869.50    0.90000     14.000     2.0000
 891.10    0.90000     42.000     6.0000
 925.00    0.90000     22.000     4.0000
ENDDATA             34
ENDSUBENT           52
SUBENT        F0259006   20050418   20050831   20050926       F021
BIB                  4          9
REACTION   (76-OS-189(HE3,D)77-IR-190,PAR,DA)
SAMPLE     Target of 189Os was approximately 33 microg/cm2 and had
           composition of 0.06% 186Os,0.41% 187Os, 1.23% 188Os,
           81.14% 189Os, 14.10% 190Os and 3.06% 192Os.
ERR-ANALYS (E-LVL-ERR) Uncertainty includes both statistical error
           on mean and error due to calibration of spectrograph.
           (DATA-ERR)  Uncertainty is addition in quadrature of
           statistical uncertainty plus reproducilibity error.
STATUS     (TABLE) Table 2
ENDBIB               9
COMMON               3          3
EN         EN-RSL     ANG
MEV        KEV        ADEG
 28.        15.        35.
ENDCOMMON            3
DATA                 4         31
E-LVL-MEAN E-LVL-ERR  DATA       DATA-ERR
KEV        KEV        MU-B/SR    MU-B/SR
 27.100     1.1000     3.7000     9.0000
 84.200    0.90000     35.000     4.0000
 146.00    0.90000     28.000     3.0000
 175.70     1.6000     6.0000     14.000
 185.50     1.6000     11.800     18.000
 196.80     1.9000     4.9000     8.0000
 227.00     1.9000     13.400     17.000
 245.50     1.1000     9.0000     13.000
 270.30     1.4000     9.5000     14.000
 284.80     1.9000     8.4000     16.000
 311.10     1.1000     16.000     2.0000
 379.00    0.90000     37.000     4.0000
 431.40     1.3000     6.3000     9.0000
 450.00     2.1000     8.7000     24.000
 465.90     2.1000     6.8000     29.000
 499.30     1.6000     2.4000     14.000
 511.10     1.6000     4.1000     7.0000
 550.90     2.7000     4.7000     9.0000
 589.60     1.6000     3.1000     16.000
 620.70     1.3000     6.0000     9.0000
 670.00     1.4000     4.5000     7.0000
 694.50     1.4000     3.2000     9.0000
 714.90     2.2000     3.3000     6.0000
 741.30     1.3000     6.5000     9.0000
 759.40     1.3000     8.9000     13.000
 802.40     2.7000     10.000     3.0000
 821.80     1.6000     8.8000     12.000
 845.60     1.4000     10.100     13.000
 867.40     1.3000     8.0000     1.0000
 891.80     1.3000     10.600     13.000
 923.70     1.3000     14.400     16.000
ENDDATA             33
ENDSUBENT           51
ENDENTRY             6
