ENTRY            31679   20090929   20100610   20100603       3144
SUBENT        31679001   20090929   20100610   20100603       3144
BIB                 13         28
TITLE      Measurement of neutron total cross section of Ag and
           Sm at Pohang Neutron Facility
AUTHOR     (G.N.Kim, Y.S.Lee, M.Rachid, H.Ahmed, D.C.Son, V.Skoy,
           H.S.Kang, I.S.Ko, M.H.Cho, W.Namkung, J.H.Chang,
           K.J.Yoo)
INSTITUTE  (3KORKNU,3KORPUE,3KORKAE)
REFERENCE  (J,NSTS,4,388,2004) Preliminary total cross section
           ((S,ISINN-11,173,2004)=(S,JINR-E3-2004-9,173,2004))
            G.N.Kim+, Data shown in J,NSTS,4,388,2004 given
FACILITY   (LINAC,3KORPUE) Pohang Neutron Facility (PUE)
METHOD     (TOF,TRN) 11 m flight path
INC-SOURCE (PHOTO) Ta(g,n) photonuclear reaction
           - The neutron target was composed of 10 Ta plates with
            a diameter of 4.9 cm and an effective thickness
            of 7.4 cm. There was a 0.15 cm water gap between
            Ta plates in order to cool the target effectively.
            The housing of the target was made of titanium.
SAMPLE     Natural Sm metal plate
           - Size: 10 x 10 cm
           - Thickness: 1.0 mm
PART-DET   (N)
DETECTOR   (SCIN) 6Li-ZnS(Ag) scintillator (BC702)
           - A diameter 12.5 cm and a thickness of 1.6 cm
ERR-ANALYS (ERR-S) Only statistical uncertainty is given
            by authors
STATUS     (APRVD) Approved by G.N.Kim (2009-10-01)
HISTORY    (20090923R) Received from G.N.Kim by e-mail
           (20090929C) S.C.Yang
ENDBIB              28
NOCOMMON             0          0
ENDSUBENT           31
SUBENT        31679002   20090929   20100610   20100603       3144
BIB                  2          3
REACTION   (62-SM-0(N,TOT),,SIG)
STATUS     (TABLE) Corresponding to Fig.3(b) of J,NSTS,4,388,2004
           (PRELM) Regarded as preliminary data by author
ENDBIB               3
NOCOMMON             0          0
DATA                 3       3451
EN         DATA       ERR-S
EV         B          B
0.17206      2371.28    292.6975
0.17252      1960.401   162.9241
0.17437      2191.676   221.7123
0.17455      2367.71    292.8529
0.17634      2372.392   292.9538
0.17653      2170.014   221.7999
0.17682      2163.477   221.8131
0.17701      2357.646   293.0295
0.17806      2042.436   185.7388
0.17835      1781.801   125.4585
0.17903      1868.569   147.0166
0.17922      1699.155   111.2997
0.17942      1956.874   163.0139
0.17951      2331.724   293.219
0.18       2166.477   221.9041
0.1802     2359.607   293.2634
0.18108      2037.204   185.8075
0.18128      2343.311   293.3651
0.18168      2024.545   185.8214
0.18187      1771.884   125.4906
0.18207      1800.854   135.0018
0.18277      2141.253   222.003
0.18297      2054.121   185.8223
0.18307      2165.568   222.0159
0.18317      2337.267   293.502
0.18337      2341.409   293.5188
0.18347      2334.999   293.5061
0.18408      1949.502   163.0786
0.18428      2360.107   293.5896
0.18448      1642.839   105.861
0.18469      1647.448   105.8538
0.18489      1609.727   101.1236
0.1851     2030.179   185.8787
0.1854     2032.486   185.8816
0.1855     2350.821   293.6669
0.18571      2330.737   293.7131
0.18581      2020.669   185.9054
0.18602      1876.229   147.0699
0.18622      1711.914   117.8062
0.18632      1947.144   163.1125
0.18643      1868.133   147.0875
0.18674      1735.589   117.7799
0.18684      1644.435   105.8664
0.18694      2033.618   185.916
0.18705      1560.587   93.29955
0.18715      2017.345   185.9275
0.18726      1821.275   135.0221
0.18736      1680.238   111.3531
0.18746      1677.675   111.3559
0.18757      2332.647   293.8535
0.18767      1750.839   125.5493
0.18778      1481.462   84.41006
0.18788      1941.162   163.1305
0.18798      1864.064   147.1062
0.18809      2143.664   222.2077
0.18819      1495.456   87.09628
0.1883     2342.324   293.9053
0.1884     1934.763   163.1524
0.18851      1585.26    96.97972
0.18872      1935.56    163.1478
0.18893      1802.964   135.0563
0.18903      1761.802   125.5452
0.18914      2015.112   185.9749
0.18924      1800.606   135.0545
0.18935      2134.286   222.2496
0.18945      1764.114   125.5468
0.18956      1930.916   163.1685
0.18988      1867.27    147.1235
0.18998      1724.068   117.8137
0.19009      1643.747   105.8808
0.1902     2345.224   294.0663
0.1903     1934.1     163.1801
0.19041      1849.841   147.14
0.19051      1860.266   147.1385
0.19062      1599.866   101.1586
0.19073      1506.324   87.08705
0.19083      1607.523   101.1487
0.19094      1546.628   93.32965
0.19105      1852.85    147.1532
0.19115      1798.039   135.079
0.19126      1746.711   125.5712
0.19137      1633.868   105.8988
0.19158      2151.795   222.316
0.19169      1603.343   101.1569
0.1918     1485.181   84.41177
0.19191      1500.578   87.09804
0.19201      1748.074   125.5767
0.19212      1855.046   147.1573
0.19223      1609.379   101.1527
0.19234      2158.938   222.3433
0.19245      2330.213   294.2748
0.19255      1490.666   87.11356
0.19266      1525.308   90.05038
0.19277      1540.237   93.34625
0.19288      1671.327   111.3925
0.19299      1858.55    147.1617
0.1931     1489.04    87.11868
0.1932     1810.925   135.0775
0.19331      1629.655   105.9104
0.19342      1433.439   77.66641
0.19353      1569.119   97.01743
0.19364      1599.406   101.1696
0.19375      1517.617   90.06409
0.19386      1500.201   84.3924
0.19397      1515.462   90.06816
0.19408      1662.321   111.4056
0.19419      1441.342   79.74601
0.1943     1476.808   84.4305
0.19441      1672.946   111.3975
0.19452      1573.408   97.01552
0.19463      1612.28    101.1548
0.19474      1649.229   105.8924
0.19485      1631.837   105.9176
0.19496      1865.202   147.1848
0.19507      1289.471   65.56551
0.19518      1700.533   117.8656
0.19529      1480.271   84.42659
0.1954     1538.666   93.35567
0.19551      1752.708   125.5988
0.19562      1698.112   117.8749
0.19573      1667.719   111.4111
0.19584      1506.939   87.09781
0.19595      1509.267   87.09292
0.19606      1526.787   93.37628
0.19618      1605.825   101.1692
0.19629      1468.762   84.44822
0.1964     1597.601   101.1833
0.19651      2010.895   186.1544
0.19662      1506.693   87.10116
0.19673      1409.667   77.71321
0.19684      1436.611   79.75837
0.19696      1514.438   90.07722
0.19707      1459.357   81.98923
0.19718      1547.555   93.34746
0.19729      1367.965   74.05432
0.19741      1426.042   79.77718
0.19752      1469.874   84.44854
0.19763      1404.434   75.78798
0.19774      1457.514   81.99419
0.19786      1507.601   90.09091
0.19797      1570.026   97.03378
0.19808      1348.916   70.84513
0.19819      1422.602   77.69202
0.19831      1455.392   81.99894
0.19842      1301.868   66.77695
0.19853      1439.249   82.02612
0.19865      1526.845   93.38313
0.19876      1296.013   66.78883
0.19887      1547.568   90.035
0.19899      1360.941   70.82261
0.1991     1222.731   60.42863
0.19921      1474.225   84.44535
0.19933      1360.783   72.39301
0.19944      1382.031   74.03161
0.19956      1300.495   66.78043
0.19967      1362.702   72.38851
0.19979      1414.074   77.71072
0.1999     1258.328   62.3081
0.20001      1341.244   70.86198
0.20013      1527.158   93.3865
0.20024      1574.87    97.03236
0.20036      1488.434   84.42429
0.20047      1295.469   66.79323
0.20059      1359.384   70.82706
0.2007     1325.378   68.03778
0.20082      1443.19    82.02543
0.20093      1439.01    82.03217
0.20105      1379.076   74.03891
0.20116      1296.918   65.557
0.20128      1222.752   60.42992
0.2014     1512.353   90.09444
0.20151      1280.93    64.42212
0.20163      1256.32    60.35507
0.20174      1183.812   56.32693
0.20186      1381.492   75.83582
0.20198      1428.314   79.78215
0.20209      1253.676   62.31993
0.20221      1401.146   77.73816
0.20233      1336.515   70.87475
0.20244      1377.461   74.04395
0.20256      1520.11    93.40546
0.20268      1266.983   63.34435
0.20279      1396.744   75.8104
0.20291      1227.101   58.63459
0.20303      1220.153   58.65033
0.20314      1250.906   62.3273
0.20326      1270.674   64.44669
0.20338      1151.279   52.97474
0.2035     1202.304   57.05359
0.20361      1320.822   68.05058
0.20373      1359.197   72.40257
0.20385      1221.154   59.52142
0.20397      1241.326   60.38986
0.20408      1261.543   61.30202
0.2042     1168.501   54.22919
0.20432      1326.763   68.03945
0.20444      1249.778   63.38552
0.20456      1193.319   57.07569
0.20468      1201.868   56.2859
0.2048     1174.081   54.21681
0.20491      1349.82    70.85255
0.20503      1243.258   61.34306
0.20515      1199.738   57.86311
0.20527      1205.798   57.04687
0.20539      1081.967   48.7602
0.20551      1202.061   59.56933
0.20563      1188.6     57.08878
0.20575      1233.714   60.40797
0.20587      1256.599   64.48049
0.20599      1429.204   79.78977
0.20611      1181.995   55.59495
0.20623      1185.228   56.32678
0.20635      1327.094   69.42676
0.20647      1181.426   57.90963
0.20659      1172.31    53.56166
0.20671      1268.675   63.34525
0.20683      1227.775   59.50962
0.20695      1261.932   62.30664
0.20707      1109.941   50.20465
0.20719      1162.267   54.9322
0.20731      1327.335   68.04224
0.20743      1238.271   61.35622
0.20755      1189.574   57.8898
0.20767      1076.961   48.77609
0.20779      1159.054   55.65347
0.20792      1215.851   58.66357
0.20804      1175.151   53.55541
0.20816      1152.078   54.2734
0.20828      1093.9     48.25174
0.2084     1327.955   69.42784
0.20852      1076.422   48.30014
0.20865      1177.385   55.60786
0.20877      1251.524   62.33092
0.20889      1164.523   55.63992
0.20901      1204.203   57.85559
0.20914      1215.041   58.66655
0.20926      1250.134   62.33459
0.20938      1207.839   58.68392
0.2095     1186.105   57.09734
0.20963      1188.356   57.09174
0.20975      1208.682   58.68257
0.20987      1168.386   54.91965
0.21       1125.789   52.43016
0.21012      1220.221   58.65593
0.21024      1168.115   54.92038
0.21037      1069.728   49.29048
0.21049      1080.004   48.29084
0.21061      1112.93    51.87019
0.21074      1089.325   49.74159
0.21086      1111.743   50.7407
0.21099      1027.942   46.24942
0.21111      1144.492   52.38098
0.21123      1160.62    54.93961
0.21136      1061.566   46.99102
0.21148      1104.789   50.76025
0.21161      1068.844   46.96973
0.21173      1100.261   50.77355
0.21186      1074.785   48.3064
0.21198      1132.373   53.66715
0.21211      1045.476   46.19618
0.21223      1144.928   53.63419
0.21236      1143.039   54.98656
0.21248      1072.752   48.79069
0.21261      1147.574   52.9895
0.21273      1037.394   46.22082
0.21286      1061.848   46.99049
0.21299      1100.27    50.77411
0.21311      1065.8     48.33335
0.21324      1037.397   45.03651
0.21336      1072.474   48.79154
0.21349      1046.825   47.03541
0.21362      1039.481   47.49724
0.21374      1199.662   58.70805
0.21387      1016.418   45.4867
0.214      1163.208   53.58912
0.21412      1077.287   48.77817
0.21425      1122.962   53.69453
0.21438      1059.194   48.35387
0.2145     973.043    42.16121
0.21463      1059.055   47.43828
0.21476      965.0767   42.18862
0.21489      1072.858   48.31374
0.21501      1104.535   50.76366
0.21514      1050.325   47.91655
0.21527      1032.007   45.43866
0.2154     1003.287   43.69496
0.21553      1003.087   44.04443
0.21565      1078.173   49.77615
0.21578      985.7211   44.10198
0.21591      1075.404   47.84297
0.21604      1095.515   49.72683
0.21617      1106.228   50.75917
0.2163     980.9199   43.76826
0.21642      1075.614   48.78418
0.21655      1013.815   45.49569
0.21668      1056.544   47.44699
0.21681      951.5057   41.05165
0.21694      934.3112   40.28477
0.21707      1093.629   50.25512
0.2172     1079.73    47.8315
0.21733      1114.129   51.87086
0.21746      934.5278   40.55453
0.21759      1019.292   43.64584
0.21772      1029.605   44.68675
0.21785      1015.563   42.65853
0.21798      906.8954   38.8675
0.21811      1040.385   46.62966
0.21824      869.5814   37.2248
0.21837      958.7501   41.60696
0.2185     1014.497   43.66084
0.21863      976.3211   42.7829
0.21876      958.1159   42.21376
0.2189     1033.716   45.82928
0.21903      973.6213   41.26434
0.21916      966.6426   41.58041
0.21929      967.2965   41.87712
0.21942      892.8499   38.68371
0.21955      1008.878   44.38578
0.21968      946.476    41.35684
0.21982      891.4839   38.00288
0.21995      938.0474   40.0078
0.22008      1017.39    46.28682
0.22021      980.6323   43.42897
0.22035      926.4059   40.04947
0.22048      936.0899   40.01505
0.22061      968.2606   42.17981
0.22074      953.3196   40.76571
0.22088      951.6494   40.77143
0.22101      991.2778   43.39425
0.22114      870.446    36.81208
0.22128      920.5165   39.55587
0.22141      1008.828   43.67986
0.22154      963.1721   42.82895
0.22168      965.8968   41.8826
0.22181      921.759    40.0667
0.22194      920.9414   38.58117
0.22208      892.6143   38.22372
0.22221      960.4755   41.30917
0.22235      925.0746   39.53993
0.22248      1025.06    45.4632
0.22262      900.3973   38.42353
0.22275      924.3495   39.04717
0.22288      950.821    40.77499
0.22302      876.6616   36.78885
0.22315      895.4651   37.55117
0.22329      890.1955   38.69538
0.22342      882.3486   36.97045
0.22356      961.0598   41.89951
0.2237     883.8933   37.17103
0.22383      934.3453   40.28723
0.22397      890.0124   38.23438
0.2241     898.5898   37.97766
0.22424      856.8022   36.86685
0.22437      883.8082   37.8122
0.22451      872.3197   37.85691
0.22465      1023.14    43.98611
0.22478      918.219    38.35956
0.22492      889.2351   36.94535
0.22506      871.554    36.41206
0.22519      904.3344   38.87924
0.22533      914.9316   40.35828
0.22547      1009.577   44.02835
0.2256     940.8431   39.74025
0.22574      868.7277   37.44029
0.22588      928.4502   40.04367
0.22602      925.8564   40.05329
0.22615      915.4733   38.60228
0.22629      916.2166   39.57323
0.22643      827.0438   34.60983
0.22657      920.2277   39.30823
0.22671      870.1924   37.01772
0.22684      793.4017   32.77192
0.22698      884.1532   38.2575
0.22712      855.3645   36.09112
0.22726      869.04     37.02237
0.2274     927.8832   40.04638
0.22754      840.5526   35.59488
0.22768      860.0821   36.26343
0.22782      871.7612   38.08163
0.22796      899.6113   37.53741
0.22809      843.9712   35.22483
0.22823      841.7399   34.71842
0.22837      873.9751   37.21028
0.22851      878.8141   36.58244
0.22865      811.4482   34.02913
0.22879      732.4584   31.24253
0.22893      867.2837   37.23648
0.22907      849.1862   35.74311
0.22921      793.0277   33.79793
0.22936      804.1817   33.59786
0.2295     797.7237   33.47558
0.22964      890.4777   37.57143
0.22978      890.9557   38.00758
0.22992      815.9655   33.85454
0.23006      826.8864   35.12038
0.2302     793.5588   34.10667
0.23034      907.0909   38.63387
0.23049      833.3399   34.92196
0.23063      825.3554   34.61778
0.23077      768.7966   33.022
0.23091      811.3891   34.84374
0.23105      876.6503   37.41057
0.2312     787.6425   33.08074
0.23134      823.278    35.48759
0.23148      875.8555   37.62786
0.23162      799.0737   33.92638
0.23177      757.5338   32.38535
0.23191      801.8822   34.55268
0.23205      759.387    32.1132
0.2322     805.9236   34.21155
0.23234      840.3043   35.41758
0.23248      809.6242   34.68422
0.23263      831.851    34.59183
0.23277      759.0505   31.73136
0.23291      832.489    35.44961
0.23306      816.2881   34.00996
0.2332     862.5817   36.44891
0.23335      812.3019   34.67299
0.23349      762.4885   31.22527
0.23363      784.402    32.81195
0.23378      792.0415   33.20668
0.23392      767.7027   31.81928
0.23407      761.051    31.72234
0.23421      848.6387   35.74635
0.23436      715.7704   30.973
0.2345     758.8791   31.85873
0.23465      815.8691   34.82573
0.2348     749.7796   31.774
0.23494      708.922    30.77862
0.23509      814.0239   33.86399
0.23523      770.8265   32.19324
0.23538      820.0719   34.31324
0.23553      768.7344   31.94245
0.23567      768.922    32.07118
0.23582      753.1904   31.02991
0.23597      763.9254   32.49115
0.23611      752.1884   31.27162
0.23626      785.9835   32.39392
0.23641      778.3      33.2675
0.23655      772.9169   32.5866
0.2367     779.0056   32.15775
0.23685      772.473    32.31887
0.237      787.7466   33.97736
0.23714      765.6592   32.21687
0.23729      725.5694   31.04147
0.23744      696.1725   29.17841
0.23759      766.19     31.95412
0.23774      759.808    31.60368
0.23789      767.7161   31.81988
0.23803      734.6422   31.11523
0.23818      724.3893   30.81698
0.23833      728.9689   30.90946
0.23848      740.4617   31.08809
0.23863      721.0706   30.49683
0.23878      736.1085   31.10858
0.23893      739.3468   31.82355
0.23908      718.0294   30.7344
0.23923      747.1572   31.91343
0.23938      728.0507   30.68648
0.23953      749.4291   31.52777
0.23968      767.0499   31.95091
0.23983      692.4412   29.89232
0.23998      716.1279   30.19499
0.24013      764.1685   31.46147
0.24028      726.8898   30.69211
0.24043      830.9923   35.1058
0.24058      680.6702   29.45057
0.24073      735.2375   31.11298
0.24089      706.1277   30.3515
0.24104      725.1523   30.04608
0.24119      709.9474   30.11876
0.24134      688.2737   29.31456
0.24149      742.7397   31.3159
0.24164      731.4377   30.44826
0.2418     738.5435   30.86535
0.24195      665.9102   28.32822
0.2421     686.7766   28.66635
0.24225      703.7867   29.43361
0.24241      727.4496   30.46691
0.24256      749.1836   31.65298
0.24271      707.4067   30.78751
0.24287      691.4788   29.01255
0.24302      693.5632   28.54342
0.24317      644.3467   28.10047
0.24333      702.3967   29.24533
0.24348      704.0225   30.36239
0.24363      717.0792   29.56948
0.24379      696.3627   29.37195
0.24394      679.9826   29.16488
0.2441     669.3289   27.8047
0.24425      720.6146   30.61065
0.24441      717.3304   29.8744
0.24456      721.3292   29.65076
0.24472      657.3247   28.63766
0.24487      645.3915   27.68438
0.24503      666.1699   28.24107
0.24518      672.6853   29.10774
0.24534      738.9951   31.21448
0.24549      657.9133   28.81491
0.24565      679.9002   28.88422
0.2458     661.903    28.88515
0.24596      666.2521   28.41415
0.24612      690.2463   29.11347
0.24627      623.3613   26.81146
0.24643      694.1226   28.54117
0.24659      671.3395   28.215
0.24674      688.5455   29.60915
0.2469     644.3567   28.10084
0.24706      734.2477   30.88624
0.24722      699.6855   29.75502
0.24737      719.1483   30.61825
0.24753      663.9871   28.69267
0.24769      632.2152   27.05788
0.24785      647.6658   27.75346
0.248      665.528    28.07416
0.24816      621.4014   27.19172
0.24832      666.7691   28.86005
0.24848      661.2371   28.35331
0.24864      649.7122   27.74268
0.2488     657.9952   28.19797
0.24896      676.4733   28.71887
0.24912      648.1177   27.91458
0.24927      716.4171   29.77634
0.24943      658.8746   28.27927
0.24959      645.8599   27.52306
0.24975      666.8185   28.952
0.24991      647.8117   27.59216
0.25007      661.2416   28.35345
0.25023      699.8682   29.25858
0.25039      655.3651   28.12719
0.25055      645.2357   27.84791
0.25072      689.2082   29.02471
0.25088      665.5714   28.15914
0.25104      651.2557   28.58185
0.2512     653.3724   27.97002
0.25136      638.6282   27.32752
0.25152      683.116    29.24574
0.25168      626.7458   26.72172
0.25184      590.0471   26.10104
0.25201      644.9036   26.8439
0.25217      703.8176   29.4352
0.25233      629.6751   27.29902
0.25249      627.3204   26.71873
0.25266      597.119    26.12699
0.25282      613.1537   26.44356
0.25298      642.6703   27.54045
0.25314      649.3248   27.50544
0.25331      616.7673   26.6337
0.25347      573.4983   25.62342
0.25363      586.1324   25.42807
0.2538     635.1286   27.34662
0.25396      663.2738   27.12464
0.25413      611.5292   25.91626
0.25429      618.5161   26.27753
0.25445      645.8884   28.09366
0.25462      569.2878   25.16734
0.25478      613.5161   25.97086
0.25495      598.8911   26.11714
0.25511      590.0513   25.4671
0.25528      609.1336   26.96412
0.25544      646.0857   27.60205
0.25561      659.7707   27.61111
0.25577      584.9188   26.13116
0.25594      648.0671   27.99869
0.25611      613.2687   26.038
0.25627      592.4379   26.35507
0.25644      569.5064   25.28397
0.25661      590.9961   25.83682
0.25677      615.5273   27.00188
0.25694      607.3091   25.7463
0.25711      591.3226   25.58335
0.25727      600.1067   26.04473
0.25744      641.888    26.64287
0.25761      596.3011   26.06618
0.25777      556.0541   25.54457
0.25794      605.3698   25.63057
0.25811      605.5593   26.28094
0.25828      565.7289   25.36587
0.25845      612.9936   26.72616
0.25861      549.6057   24.2384
0.25878      591.5596   26.09313
0.25895      618.746    25.87806
0.25912      584.1963   26.20202
0.25929      596.8687   25.74055
0.25946      585.0123   24.96224
0.25963      576.8497   25.1241
0.2598     573.5104   25.20194
0.25997      570.142    24.98919
0.26014      544.7295   24.01261
0.26031      580.4583   25.28045
0.26048      568.0074   24.77565
0.26065      568.2153   25.05793
0.26082      557.433    25.0068
0.26099      566.7628   24.89522
0.26116      545.871    24.20913
0.26133      578.4373   25.29209
0.2615     554.9908   25.37117
0.26167      541.6135   24.87761
0.26184      618.4775   27.28561
0.26202      560.0936   24.22959
0.26219      592.9086   26.21843
0.26236      563.9102   24.74404
0.26253      559.5062   24.71445
0.2627     557.8377   24.50664
0.26288      567.9282   25.05989
0.26305      575.4412   25.01658
0.26322      549.0724   24.3462
0.2634     583.9083   24.96875
0.26357      555.3357   24.62961
0.26374      552.6877   24.1181
0.26392      531.067    23.8963
0.26409      533.3705   23.35995
0.26426      564.1952   25.1398
0.26444      540.7977   23.88711
0.26461      484.2614   23.30676
0.26479      550.9662   24.71043
0.26496      527.3288   24.06819
0.26514      546.4698   24.41439
0.26531      495.1477   23.78622
0.26549      528.0708   24.36995
0.26566      571.1732   25.51553
0.26584      533.8796   23.40324
0.26601      526.2657   23.31109
0.26619      570.8257   25.33673
0.26636      501.2309   23.33047
0.26654      567.1511   25.29875
0.26672      502.7639   23.01212
0.26689      553.9944   24.80289
0.26707      497.3318   23.22169
0.26725      524.0416   24.08884
0.26742      542.9587   24.38315
0.2676     526.6278   23.77773
0.26778      582.365    25.3301
0.26796      511.6748   23.40069
0.26813      509.3358   23.2346
0.26831      489.8289   22.75549
0.26849      543.8719   24.17049
0.26867      507.4377   23.29147
0.26885      535.5697   24.37595
0.26902      530.5581   23.85088
0.2692     515.7014   23.28503
0.26938      527.3087   24.47983
0.26956      548.8248   24.45386
0.26974      567.6439   24.55861
0.26992      534.7497   23.97329
0.2701     478.6996   22.99636
0.27028      492.6858   22.86281
0.27046      504.1335   22.87535
0.27064      497.1335   22.26722
0.27082      511.5406   23.44754
0.271      496.4575   22.96627
0.27118      527.0438   24.07059
0.27136      465.5289   22.50976
0.27154      523.803    23.74715
0.27172      543.9478   23.67442
0.27191      489.5573   22.59344
0.27209      535.9596   24.27006
0.27227      487.7898   22.76895
0.27245      504.0273   22.54371
0.27263      480.1174   22.86065
0.27282      511.0893   23.31392
0.273      467.4861   21.85271
0.27318      539.47     23.74912
0.27336      533.4714   23.54615
0.27355      469.1975   21.62737
0.27373      516.0004   22.76067
0.27391      494.8201   22.89179
0.2741     554.6188   24.42004
0.27428      485.0367   22.70429
0.27447      489.1693   22.88576
0.27465      502.2577   22.71928
0.27484      503.905    23.6356
0.27502      481.9661   22.89055
0.2752     465.9774   22.12128
0.27539      512.0346   22.91231
0.27557      463.5289   22.32798
0.27576      488.252    22.68366
0.27595      477.5687   22.67124
0.27613      484.9058   22.82959
0.27632      498.7778   22.82475
0.2765     486.1372   23.29543
0.27669      460.819    22.00645
0.27688      488.5357   22.32119
0.27706      483.0749   22.79993
0.27725      523.5485   23.14849
0.27744      468.0215   22.07049
0.27762      508.9228   23.19354
0.27781      435.9541   21.53656
0.278      530.0023   23.42733
0.27819      468.6042   22.02945
0.27837      458.7825   21.73057
0.27856      481.05     22.56774
0.27875      484.3198   21.92916
0.27894      483.6297   22.27451
0.27913      451.3051   21.43321
0.27932      505.5703   22.86722
0.27951      461.0057   21.78732
0.2797     466.6016   22.00563
0.27989      471.7896   22.23525
0.28008      464.2141   21.62467
0.28027      461.1466   21.96774
0.28046      452.4938   21.56221
0.28065      515.8991   22.80419
0.28084      518.3846   23.00392
0.28103      465.1285   22.08975
0.28122      457.0668   21.74214
0.28141      423.7747   21.2554
0.2816     504.3209   22.54268
0.28179      483.915    22.04387
0.28198      511.0019   22.30186
0.28218      485.841    22.22204
0.28237      442.0195   21.42787
0.28256      456.1921   21.53807
0.28275      485.6147   22.26217
0.28294      469.1916   21.95197
0.28314      475.4744   22.0601
0.28333      474.8576   21.95244
0.28352      458.2575   21.69904
0.28372      417.9501   20.82455
0.28391      498.8951   22.86691
0.2841     460.3772   22.19688
0.2843     413.0072   20.85909
0.28449      444.4118   21.37829
0.28469      453.3442   21.38628
0.28488      472.4219   22.42565
0.28508      457.1161   21.70665
0.28527      446.8754   21.66965
0.28547      478.5614   22.38556
0.28566      450.2183   21.27326
0.28586      457.3202   21.77643
0.28605      447.5076   22.209
0.28625      462.2866   21.60267
0.28645      432.0584   20.88183
0.28664      404.0543   20.80161
0.28684      440.9681   21.50294
0.28704      411.5911   20.71837
0.28723      427.6842   20.94257
0.28743      431.2372   21.63839
0.28763      435.4718   21.33911
0.28783      483.1241   22.3173
0.28802      483.2616   22.43438
0.28822      432.3596   21.10004
0.28842      416.5838   20.92626
0.28862      420.3645   20.89995
0.28882      455.5421   21.4061
0.28902      436.5269   21.63626
0.28922      430.7621   21.07911
0.28941      470.061    22.32441
0.28961      451.1005   21.40142
0.28981      433.7005   20.65765
0.29001      431.8384   21.39736
0.29021      430.7105   21.24053
0.29041      447.0746   21.19565
0.29061      454.9145   21.86448
0.29082      422.2353   20.91808
0.29102      421.4642   20.6208
0.29122      437.1443   21.26211
0.29142      430.1286   21.24461
0.29162      377.2821   20.58787
0.29182      413.003    20.61994
0.29202      421.0382   21.05128
0.29223      394.8063   20.20832
0.29243      447.7782   21.12601
0.29263      466.8611   22.19233
0.29283      405.5669   20.32673
0.29304      395.1535   20.23337
0.29324      432.7512   21.22674
0.29344      437.1782   20.57534
0.29365      367.2992   20.55017
0.29385      429.2752   20.9634
0.29406      381.532    20.84771
0.29426      389.9366   20.43787
0.29446      438.5206   21.09092
0.29467      432.2482   20.54859
0.29487      418.8321   20.81921
0.29508      424.6848   20.74871
0.29528      429.1218   20.93336
0.29549      441.9975   21.13217
0.2957     410.0164   20.52406
0.2959     431.1603   20.55592
0.29611      463.6296   21.25374
0.29631      388.4923   20.28124
0.29652      413.0611   20.33157
0.29673      412.6543   20.68188
0.29694      418.6      20.49415
0.29714      468.1371   21.60082
0.29735      391.1674   20.28962
0.29756      401.4005   20.49816
0.29777      416.6162   20.36402
0.29797      403.4676   20.39817
0.29818      404.8914   20.11089
0.29839      405.0848   20.0825
0.2986     407.7255   20.62779
0.29881      421.4948   20.56213
0.29902      412.7866   20.33356
0.29923      403.5643   20.836
0.29944      387.4183   20.15277
0.29965      380.0237   20.51105
0.29986      376.2703   19.58853
0.30007      357.0698   19.82936
0.30028      420.7352   21.11726
0.30049      408.7995   20.76877
0.3007     383.0867   19.94506
0.30091      394.7077   20.29215
0.30112      376.6326   19.13479
0.30134      368.686    19.44904
0.30155      365.4569   19.64254
0.30176      377.9489   20.08768
0.30197      394.3642   20.54881
0.30218      373.7223   19.48503
0.3024     416.7395   20.39206
0.30261      402.9147   20.01699
0.30282      388.969    19.85135
0.30304      390.067    20.16108
0.30325      364.5684   18.99422
0.30346      420.5592   20.48119
0.30368      374.5932   19.62543
0.30389      374.933    19.8492
0.30411      362.7789   19.44448
0.30432      379.0541   19.54441
0.30454      411.3512   20.48651
0.30475      402.9542   20.12471
0.30497      399.3885   19.55129
0.30518      394.0319   19.8419
0.3054     388.2123   20.0937
0.30562      381.0622   20.28094
0.30583      409.6345   20.41253
0.30605      384.0125   19.99119
0.30627      359.0707   19.2607
0.30648      376.6989   19.91363
0.3067     409.3429   20.32966
0.30692      409.9718   20.18609
0.30714      388.8445   20.30691
0.30736      367.2942   18.93089
0.30757      393.6811   20.21725
0.30779      387.3072   19.68488
0.30801      331.7872   19.68097
0.30823      378.5678   19.214
0.30845      370.0759   19.53591
0.30867      413.5306   19.48203
0.30889      359.5412   19.54054
0.30911      384.8136   19.93322
0.30933      348.6757   18.93372
0.30955      339.1743   19.29484
0.30977      365.2879   19.89505
0.30999      375.4955   19.76927
0.31021      382.7077   19.84478
0.31043      355.0521   19.47816
0.31066      398.8293   20.07271
0.31088      372.9318   20.20556
0.3111     375.1143   19.42743
0.31132      355.7151   19.59336
0.31154      366.5152   19.34667
0.31177      359.7031   19.21037
0.31199      318.8554   19.34035
0.31221      320.4716   18.80634
0.31244      346.416    19.26294
0.31266      399.8699   19.72486
0.31288      373.4552   19.46346
0.31311      326.0007   19.14965
0.31333      385.3233   19.87785
0.31356      358.9337   19.56947
0.31378      381.6703   19.95606
0.31401      360.5158   19.22752
0.31423      364.445    19.8507
0.31446      333.1983   19.00649
0.31469      371.7889   19.35614
0.31491      363.8027   19.58212
0.31514      352.3121   19.15104
0.31536      382.2391   19.37748
0.31559      354.7801   19.02106
0.31582      338.0729   18.61111
0.31605      353.6784   19.16363
0.31627      334.9541   19.05875
0.3165     344.6645   18.81303
0.31673      366.4934   19.3944
0.31696      333.1148   19.16129
0.31719      323.46     18.41957
0.31742      331.3642   18.97727
0.31765      359.6176   19.28045
0.31787      325.6543   18.56204
0.3181     357.1295   19.43935
0.31833      356.9014   19.2312
0.31856      353.5984   19.34815
0.31879      339.919    18.84838
0.31903      367.7381   19.72593
0.31926      339.1537   18.8328
0.31949      354.572    19.13462
0.31972      355.3311   19.17433
0.31995      339.2703   19.2719
0.32018      336.2542   18.666
0.32041      352.7889   19.19317
0.32065      357.6724   19.45931
0.32088      338.1958   18.65159
0.32111      337.3657   18.65779
0.32135      379.7681   19.00062
0.32158      335.4402   18.73439
0.32181      337.465    18.84562
0.32205      351.6436   18.95625
0.32228      340.6911   18.86413
0.32252      349.2002   19.28857
0.32275      339.9744   18.91245
0.32298      317.2735   18.64677
0.32322      338.5149   18.71158
0.32346      341.56     18.68906
0.32369      323.5176   18.55844
0.32393      325.6928   18.1533
0.32416      340.8813   18.97063
0.3244     327.1359   18.43166
0.32464      293.5765   18.15808
0.32487      320.2345   18.56354
0.32511      335.2372   18.99157
0.32535      334.7359   18.90908
0.32559      402.504    19.68235
0.32582      334.2084   18.64036
0.32606      333.1798   18.5665
0.3263     329.9424   17.91881
0.32654      330.089    18.71258
0.32678      333.5337   18.42367
0.32702      331.1233   18.72556
0.32726      358.3288   19.40747
0.3275     316.4976   18.33691
0.32774      317.9274   18.19273
0.32798      327.4932   18.62969
0.32822      319.4974   18.69086
0.32846      310.4256   18.44182
0.3287     338.3662   18.46782
0.32894      340.0857   18.80524
0.32918      341.5555   18.77321
0.32943      324.371    18.55227
0.32967      307.8939   18.26955
0.32991      370.7193   19.27078
0.33015      309.5574   18.5272
0.3304     329.1287   18.51644
0.33064      338.6857   18.81574
0.33088      320.5264   18.56164
0.33113      347.2321   18.484
0.33137      292.2331   17.98832
0.33162      336.3372   19.07112
0.33186      330.5669   18.27005
0.33211      322.803    18.02626
0.33235      317.383    18.19708
0.3326     321.5709   18.47414
0.33284      302.5543   18.06984
0.33309      310.7147   18.17289
0.33334      313.9482   18.28005
0.33358      309.1842   18.16605
0.33383      319.6156   18.21811
0.33408      299.543    17.8084
0.33432      327.1846   18.86068
0.33457      331.8122   18.45674
0.33482      340.4711   18.6977
0.33507      341.5284   18.54593
0.33532      305.1906   18.30983
0.33556      301.2194   17.76101
0.33581      322.5825   18.48643
0.33606      313.8184   17.91194
0.33631      290.6355   18.01904
0.33656      333.5395   18.36505
0.33681      308.2083   17.67382
0.33706      322.157    18.37187
0.33731      317.5602   18.42631
0.33757      295.5768   18.32894
0.33782      322.2725   18.35164
0.33807      316.9382   18.14455
0.33832      299.7053   18.12885
0.33857      307.0399   18.31464
0.33882      294.4586   17.91805
0.33908      323.768    18.22522
0.33933      322.0645   18.29533
0.33958      305.0944   18.01431
0.33984      324.627    18.06858
0.34009      313.7707   18.14996
0.34035      320.7527   18.11604
0.3406     311.5239   17.84048
0.34085      268.1426   17.92024
0.34111      316.6669   18.35564
0.34136      297.8463   18.2548
0.34162      295.5429   17.38711
0.34188      271.7206   17.75488
0.34213      307.4979   17.83557
0.34239      317.0564   18.50924
0.34265      337.4743   18.29747
0.3429     329.8161   18.43241
0.34316      301.6522   17.74078
0.34342      346.8425   18.63082
0.34368      314.0369   18.11097
0.34393      271.257    17.49564
0.34419      295.5579   17.6849
0.34445      316.873    18.23939
0.34471      293.5817   17.73427
0.34497      292.5633   18.04008
0.34523      287.1141   17.56619
0.34549      307.8351   18.06632
0.34575      281.7013   17.46147
0.34601      317.7042   18.2332
0.34627      295.1527   17.53738
0.34653      304.4744   18.12895
0.34679      271.5542   17.63998
0.34705      319.9067   18.21661
0.34732      298.4141   17.56239
0.34758      284.5776   17.52032
0.34784      299.2893   18.02351
0.3481     303.4527   17.67595
0.34837      278.5747   17.06552
0.34863      284.9165   17.27765
0.34889      294.1355   17.73016
0.34916      264.8678   17.57979
0.34942      261.7041   17.60568
0.34969      297.2589   17.89681
0.34995      282.3049   17.68732
0.35022      324.3267   18.22166
0.35048      274.6736   17.54962
0.35075      283.5525   17.81326
0.35102      289.6241   17.74828
0.35128      287.028    17.65027
0.35155      294.9427   17.81006
0.35182      279.8283   17.54147
0.35208      280.9586   17.37153
0.35235      274.6203   17.09623
0.35262      260.7173   17.7787
0.35289      297.6695   17.53511
0.35316      301.0775   17.54256
0.35342      316.4335   18.18662
0.35369      281.2229   17.64595
0.35396      296.7642   17.60875
0.35423      275.8883   17.75559
0.3545     255.4028   17.57718
0.35477      307.9514   17.29541
0.35504      273.5775   17.42975
0.35532      290.2641   17.70951
0.35559      305.8287   17.47389
0.35586      300.2988   17.31997
0.35613      287.1248   17.71715
0.3564     274.3552   17.15901
0.35668      294.4053   17.3804
0.35695      271.6466   17.24146
0.35722      267.4906   17.18262
0.3575     293.4223   17.61774
0.35777      323.6944   17.78667
0.35804      268.3824   17.34498
0.35832      265.7903   17.25726
0.35859      272.3144   17.75096
0.35887      285.071    17.0616
0.35914      265.8176   17.42847
0.35942      292.066    17.62835
0.3597     290.7022   17.63892
0.35997      268.5221   17.53455
0.36025      288.4872   17.50697
0.36053      270.8298   16.97741
0.3608     248.8502   16.69695
0.36108      284.347    17.1739
0.36136      257.8429   17.15438
0.36164      302.1588   17.387
0.36192      243.6576   16.92002
0.3622     263.0834   16.95051
0.36247      246.9037   16.85129
0.36275      226.9117   17.07418
0.36303      279.65     17.44623
0.36331      282.1878   17.28377
0.3636     264.0404   17.24087
0.36388      272.4505   17.29739
0.36416      265.1039   17.38723
0.36444      239.246    17.04227
0.36472      238.588    16.83544
0.365      248.1243   16.92638
0.36529      245.4732   17.03424
0.36557      288.571    17.42537
0.36585      291.3419   17.24526
0.36614      255.0036   17.14767
0.36642      254.7149   16.90196
0.3667     290.2606   17.65953
0.36699      271.7096   16.92701
0.36727      280.8344   17.56706
0.36756      248.4812   16.63215
0.36784      272.4549   17.29754
0.36813      284.3857   17.08236
0.36842      266.5254   16.55916
0.3687     269.7094   17.10535
0.36899      270.8105   17.03703
0.36928      274.8377   17.08035
0.36956      301.3897   17.3932
0.36985      271.5843   17.0907
0.37014      254.781    16.58252
0.37043      301.3829   17.28077
0.37072      267.0213   16.97829
0.37101      254.5588   16.83247
0.3713     270.9596   17.00638
0.37159      280.5462   17.12706
0.37188      261.2617   16.97989
0.37217      254.7532   16.91623
0.37246      245.8796   16.69396
0.37275      285.7553   17.17917
0.37304      281.6339   17.33576
0.37333      268.6274   17.03946
0.37363      261.6105   17.18483
0.37392      231.6013   16.90772
0.37421      283.3022   17.59752
0.3745     252.2388   17.0377
0.3748     252.3696   16.9642
0.37509      216.6832   16.97888
0.37539      236.3364   16.60963
0.37568      266.1046   16.72813
0.37598      234.7039   16.81266
0.37627      239.4651   16.89864
0.37657      275.9037   17.07249
0.37686      231.2004   16.55914
0.37716      249.6184   16.66425
0.37746      283.4369   16.91111
0.37775      255.9652   16.73771
0.37805      235.5131   16.42022
0.37835      246.861    17.00905
0.37865      252.0095   16.39281
0.37895      263.807    16.91668
0.37925      264.6062   17.07145
0.37954      252.7446   16.87566
0.37984      254.4412   16.77773
0.38014      250.218    16.4069
0.38044      283.9611   17.1014
0.38074      289.1855   17.2939
0.38105      256.6069   16.56874
0.38135      274.7209   16.99252
0.38165      222.3445   16.48969
0.38195      201.8794   16.42277
0.38225      235.7844   16.44396
0.38256      235.5315   16.6298
0.38286      254.4299   16.89077
0.38316      247.7625   16.67937
0.38347      251.7892   16.53962
0.38377      235.2554   16.47423
0.38408      228.3466   15.7895
0.38438      235.5352   16.65666
0.38469      250.1584   16.81214
0.38499      250.0595   16.46062
0.3853     243.4976   16.74114
0.3856     242.5383   16.30074
0.38591      230.7526   16.39519
0.38622      230.4792   16.41014
0.38653      238.1008   16.24791
0.38683      253.0266   16.74755
0.38714      241.5592   16.37222
0.38745      259.6701   16.80694
0.38776      207.5054   16.06201
0.38807      237.1559   16.59026
0.38838      248.2381   16.30691
0.38869      221.7172   16.38077
0.389      252.5247   16.76554
0.38931      235.7624   16.15538
0.38962      249.1062   16.83489
0.38993      245.9149   16.70817
0.39025      252.9089   16.81844
0.39056      240.6438   16.56219
0.39087      251.2205   16.65223
0.39118      234.9954   16.37387
0.3915     233.4079   16.3994
0.39181      247.4511   16.46837
0.39213      236.5571   16.27299
0.39244      245.6257   16.48284
0.39276      242.4488   16.48198
0.39307      252.1899   16.86662
0.39339      224.2344   16.50023
0.3937     256.6697   16.69151
0.39402      226.469    16.43058
0.39434      249.5973   16.49106
0.39465      253.301    16.50169
0.39497      257.2564   16.51074
0.39529      234.2158   16.29188
0.39561      238.9497   16.38064
0.39593      233.1525   16.3762
0.39625      241.8929   16.44743
0.39657      259.4943   16.29722
0.39689      238.7901   16.60399
0.39721      247.6755   16.61301
0.39753      228.9774   16.2967
0.39785      248.0593   16.51654
0.39817      238.1561   16.36156
0.39849      212.3389   16.28539
0.39881      219.6422   16.2127
0.39914      212.0908   16.09501
0.39946      237.9944   16.63737
0.39978      215.4786   15.98515
0.40011      239.1638   16.27773
0.40043      250.3009   16.16555
0.40076      234.4906   16.15378
0.40108      246.2724   16.18437
0.40141      224.9942   16.3293
0.40173      239.0771   16.10537
0.40206      223.2917   16.59956
0.40239      270.0946   16.8546
0.40271      252.5824   16.28657
0.40304      226.7741   16.14267
0.40337      215.0785   15.94232
0.4037     200.1369   15.90617
0.40403      210.16     16.3905
0.40435      224.6745   15.96927
0.40468      262.0626   16.54109
0.40501      240.76     16.32842
0.40534      252.5647   16.5213
0.40568      218.6668   15.68817
0.40601      266.917    16.65392
0.40634      267.7478   16.87297
0.40667      223.9453   16.32564
0.407      227.6139   16.07597
0.40733      247.9982   16.1465
0.40767      233.7146   16.2341
0.408      234.2002   16.60209
0.40834      221.7549   16.20797
0.40867      240.6719   16.57611
0.409      249.3548   16.19823
0.40934      216.2051   15.89897
0.40968      228.4284   16.02194
0.41001      245.2536   16.38264
0.41035      219.3126   16.11939
0.41068      212.4018   16.08118
0.41102      192.3365   15.97239
0.41136      205.0331   15.83221
0.4117     233.7769   15.85112
0.41204      206.7012   15.93126
0.41238      234.4994   16.20335
0.41271      241.5991   16.07402
0.41305      260.6261   16.08759
0.41339      231.9972   15.9819
0.41374      236.85     16.32203
0.41408      212.4428   15.62903
0.41442      212.5348   16.12759
0.41476      204.4682   15.84817
0.4151     195.5146   15.65973
0.41544      205.2917   16.10523
0.41579      253.7055   16.1031
0.41613      195.7605   15.80969
0.41648      236.0555   16.22832
0.41682      250.1628   16.35736
0.41716      206.5508   15.76441
0.41751      187.5042   15.66297
0.41786      207.9582   15.71994
0.4182     233.5501   15.773
0.41855      213.8283   15.66157
0.4189     209.3231   16.07175
0.41924      226.5423   16.13323
0.41959      205.6533   16.00919
0.41994      229.8219   15.84802
0.42029      210.6953   15.71977
0.42064      246.7589   16.33285
0.42099      233.2402   16.0918
0.42134      221.686    16.10056
0.42169      205.5191   15.57789
0.42204      228.5462   15.89273
0.42239      197.1444   15.78741
0.42274      235.5397   16.15876
0.42309      249.5155   15.73105
0.42345      239.0445   15.99829
0.4238     231.5226   15.93913
0.42415      200.4473   15.39995
0.42451      225.534    16.11755
0.42486      211.7353   15.78909
0.42522      235.5346   16.04979
0.42557      212.4785   15.70561
0.42593      209.7886   15.84986
0.42628      231.9749   16.07802
0.42664      213.2116   15.98173
0.427      240.3906   16.1329
0.42735      217.7908   15.87556
0.42771      210.0816   15.68131
0.42807      208.4519   15.87219
0.42843      220.4046   16.09944
0.42879      192.4677   15.53778
0.42915      205.5275   15.84009
0.42951      243.1242   16.32366
0.42987      220.078    15.73337
0.43023      206.6536   16.09454
0.43059      197.3918   15.24386
0.43095      222.0666   15.87567
0.43132      223.9225   15.80395
0.43168      206.5825   15.89906
0.43204      195.2658   15.56713
0.43241      231.3856   15.71152
0.43277      208.7395   16.25632
0.43314      248.5209   16.29427
0.4335     210.3006   15.61473
0.43387      205.2755   15.64472
0.43423      228.4043   16.08291
0.4346     204.2795   15.77283
0.43497      213.1848   15.81135
0.43534      236.3118   16.09241
0.4357     226.7464   15.95422
0.43607      192.671    15.54686
0.43644      200.3801   15.91691
0.43681      199.6683   15.57323
0.43718      198.629    15.79768
0.43755      189.318    15.29009
0.43792      207.0318   15.70657
0.43829      209.0966   15.46546
0.43867      223.7998   15.89663
0.43904      192.3126   15.4364
0.43941      214.9176   15.53523
0.43978      201.4241   15.45446
0.44016      189.6341   15.23834
0.44053      181.0414   15.55118
0.44091      215.5484   15.6707
0.44128      206.5344   16.13147
0.44166      214.8551   15.94593
0.44203      186.5006   15.58823
0.44241      207.8627   15.75487
0.44279      208.6174   15.39682
0.44316      189.8876   15.31538
0.44354      224.4975   15.75486
0.44392      201.3213   15.8199
0.4443     230.9548   15.62651
0.44468      204.2094   15.72995
0.44506      216.9848   15.58338
0.44544      206.8643   15.68645
0.44582      189.0171   15.22407
0.4462     200.7164   15.67183
0.44658      185.056    15.28612
0.44697      211.4003   15.66067
0.44735      222.149    15.99168
0.44773      251.7922   16.0094
0.44812      219.6908   15.81586
0.4485     229.9772   16.04721
0.44889      202.4982   15.60374
0.44927      188.425    15.43845
0.44966      243.2575   15.69994
0.45004      199.8195   15.38576
0.45043      217.1039   15.74701
0.45082      179.4748   15.36246
0.45121      188.4987   15.3873
0.4516     203.3944   15.74795
0.45198      197.8992   15.53587
0.45237      191.4212   15.68492
0.45276      212.9757   15.98503
0.45315      188.8102   15.45576
0.45354      225.3243   15.69304
0.45394      221.2868   15.90606
0.45433      167.1323   15.69259
0.45472      214.4689   15.71303
0.45511      190.7911   15.40893
0.45551      181.9485   15.25349
0.4559     191.7463   15.41129
0.4563     201.5033   15.33191
0.45669      212.4184   15.65296
0.45709      195.4418   15.78138
0.45748      186.7485   15.322
0.45788      221.8156   15.59998
0.45828      206.3239   15.7024
0.45867      221.1283   15.44485
0.45907      215.2437   15.41764
0.45947      212.6552   15.40688
0.45987      182.2519   15.07872
0.46027      190.666    15.38998
0.46067      204.1908   15.67646
0.46107      208.7872   15.564
0.46147      198.9369   15.27254
0.46187      188.2662   15.66921
0.46227      204.362    15.39064
0.46268      201.8931   15.29882
0.46308      186.5837   15.27423
0.46348      211.7394   15.80213
0.46389      199.6816   15.36722
0.46429      190.2303   15.46498
0.4647     229.3423   15.55249
0.46511      184.3279   15.54521
0.46551      205.8153   15.64184
0.46592      219.2691   15.54486
0.46633      172.0183   15.35706
0.46673      194.6188   15.41875
0.46714      159.9145   15.18215
0.46755      214.2504   15.43631
0.46796      195.8393   15.27792
0.46837      172.3725   15.31495
0.46878      215.3226   15.77344
0.46919      190.7979   15.36913
0.46961      198.3017   15.71459
0.47002      198.5246   15.56309
0.47043      218.8518   15.51629
0.47084      228.3485   15.60409
0.47126      201.6716   15.35151
0.47167      199.6372   15.32746
0.47209      189.3344   15.57639
0.4725     192.1954   15.378
0.47292      201.6269   15.36208
0.47334      182.9774   15.3144
0.47375      209.6904   15.74157
0.47417      207.1701   15.21742
0.47459      188.323    15.42015
0.47501      196.7291   15.29095
0.47543      158.4853   15.39587
0.47585      193.5568   15.43808
0.47627      182.5814   15.20073
0.47669      195.8208   15.56467
0.47711      196.4997   15.52766
0.47754      186.7508   15.3628
0.47796      177.6971   15.25108
0.47838      217.8501   15.32573
0.47881      207.9683   15.19151
0.47923      211.9178   15.58249
0.47966      191.7637   15.16439
0.48008      185.4904   15.0157
0.48051      185.7613   15.44174
0.48093      188.1148   15.22333
0.48136      170.3625   15.15969
0.48179      185.2942   15.58988
0.48222      186.6831   15.22538
0.48265      182.9595   15.64111
0.48308      217.3529   15.34015
0.48351      176.7334   15.19196
0.48394      178.0178   15.21003
0.48437      175.5818   15.30807
0.4848     201.4409   15.19416
0.48523      180.0199   15.35951
0.48567      174.1125   15.28152
0.4861     170.8423   15.27049
0.48654      166.792    15.26643
0.48697      191.5821   15.40401
0.48741      168.6987   15.10827
0.48784      211.5773   15.30393
0.48828      183.6964   15.1441
0.48872      203.6606   15.5117
0.48915      203.5274   15.54435
0.48959      185.9763   14.91062
0.49003      178.4899   15.14899
0.49047      207.5451   15.51195
0.49091      176.5698   15.00572
0.49135      190.0009   15.50944
0.49179      184.608    15.07975
0.49224      154.5913   15.44066
0.49268      194.6124   14.98974
0.49312      174.7534   15.03009
0.49356      183.4018   14.98682
0.49401      209.9682   15.74043
0.49445      196.2577   15.15793
0.4949     165.2903   15.22235
0.49535      186.5966   15.3152
0.49579      194.0398   14.92923
0.49624      190.6996   15.3915
0.49669      190.8794   15.31978
0.49714      197.015    15.57692
0.49759      168.3415   14.89262
0.49804      169.2163   15.10444
0.49849      181.1783   15.13667
0.49894      163.2576   15.13629
0.49939      185.986    15.15455
0.49984      164.3572   14.99814
0.50029      195.1523   15.1477
0.50075      181.6417   15.40659
0.5012     201.7204   15.57025
0.50166      189.1358   15.13861
0.50211      195.9156   15.18052
0.50257      168.6778   15.16549
0.50302      227.6728   15.85787
0.50348      202.5111   15.3871
0.50394      186.002    15.52283
0.5044     181.2924   15.32012
0.50486      161.2927   15.14405
0.50532      188.4759   15.05845
0.50578      173.0963   15.37937
0.50624      210.7481   15.42441
0.5067     185.2704   15.12254
0.50716      165.0722   14.73583
0.50762      198.6316   15.34753
0.50809      171.9687   14.81868
0.50855      160.6663   15.11239
0.50902      178.9085   15.35021
0.50948      197.9559   15.24305
0.50995      174.8306   14.93858
0.51042      174.3384   14.94265
0.51088      180.6846   15.57844
0.51135      186.6281   15.27623
0.51182      188.2867   15.12685
0.51229      201.9454   15.03659
0.51276      196.2233   15.16885
0.51323      181.6405   15.23935
0.5137     186.6731   15.01709
0.51417      188.2961   15.08875
0.51464      176.0371   15.07629
0.51512      191.4139   14.84104
0.51559      206.2409   15.54495
0.51607      169.6769   15.05502
0.51654      178.1068   15.17258
0.51702      183.1355   14.83512
0.51749      206.4777   15.41768
0.51797      170.5995   15.05663
0.51845      195.0077   15.17891
0.51893      179.4205   14.73219
0.51941      126.1464   14.96036
0.51989      190.791    15.42237
0.52037      201.4136   15.31563
0.52085      169.6391   15.33101
0.52133      206.7895   15.53026
0.52181      175.2767   15.0271
0.52229      202.386    15.04315
0.52278      195.1459   15.02456
0.52326      209.5793   15.28105
0.52375      168.6662   14.93599
0.52423      179.1094   15.04204
0.52472      168.8629   15.1745
0.52521      182.4017   15.4418
0.52569      187.2742   15.06919
0.52618      182.7708   15.18237
0.52667      200.2487   15.41688
0.52716      197.0669   15.33099
0.52765      186.3445   15.10527
0.52814      153.6913   14.95526
0.52864      190.6809   15.00418
0.52913      174.3682   15.02578
0.52962      179.1631   15.31953
0.53011      146.3169   15.02808
0.53061      165.6706   15.39501
0.5311     158.301    15.1153
0.5316     165.5528   14.9987
0.5321     201.0509   15.18988
0.5326     183.2264   14.95329
0.53309      176.2696   14.99181
0.53359      145.7709   15.13251
0.53409      180.3394   15.19326
0.53459      200.2443   15.31576
0.53509      181.777    14.90119
0.53559      177.3517   15.00148
0.5361     187.9003   15.04577
0.5366     168.0602   15.37474
0.5371     168.4663   15.01099
0.53761      176.8426   14.80682
0.53811      181.1959   14.88794
0.53862      188.9993   15.01826
0.53913      161.8885   14.83335
0.53963      188.0598   15.16856
0.54014      151.0957   14.96039
0.54065      181.8839   14.91882
0.54116      173.5425   14.93261
0.54167      186.1185   14.96719
0.54218      202.2817   14.96914
0.54269      184.0987   14.92839
0.5432     183.2554   15.21789
0.54372      184.5732   15.02631
0.54423      177.0575   15.22112
0.54475      142.7122   14.98031
0.54526      177.6354   14.90825
0.54578      198.1531   15.16489
0.54629      171.7924   15.08523
0.54681      188.0536   14.95186
0.54733      198.6856   15.19982
0.54785      158.849    14.88574
0.54837      154.4168   14.80971
0.54889      182.9969   14.89199
0.54941      180.0423   14.77261
0.54993      185.2679   14.89191
0.55045      189.9922   15.35995
0.55098      185.2451   15.57328
0.5515     192.217    15.02123
0.55203      176.793    14.84349
0.55255      163.6777   14.97926
0.55308      151.8787   14.95429
0.55361      186.0765   15.08042
0.55413      185.204    15.21213
0.55466      170.0563   14.8367
0.55519      191.4568   15.11298
0.55572      180.7294   14.8926
0.55625      172.1433   15.04571
0.55678      173.4654   14.70387
0.55732      171.2111   15.1
0.55785      171.3586   14.84385
0.55838      186.8806   14.75366
0.55892      164.6313   15.25036
0.55945      179.7879   14.92774
0.55999      150.8428   14.88423
0.56053      194.9446   15.11397
0.56107      154.8769   14.89369
0.5616     177.4073   14.91092
0.56214      173.4704   14.70408
0.56268      172.985    15.02976
0.56322      161.7449   14.9421
0.56377      187.0171   15.04505
0.56431      168.5874   14.72684
0.56485      184.1175   15.09704
0.5654     172.736    15.0598
0.56594      196.1365   14.93468
0.56649      160.7828   14.92361
0.56703      188.3567   15.05316
0.56758      179.515    14.69888
0.56813      127.1307   14.75936
0.56868      190.1099   14.84506
0.56923      208.6602   14.90228
0.56978      191.0955   15.05959
0.57033      165.3282   14.93031
0.57088      151.695    14.85132
0.57143      161.6266   14.86355
0.57199      172.9995   14.78696
0.57254      188.841    15.12557
0.5731     201.0055   15.00924
0.57365      184.0291   15.14584
0.57421      157.6581   14.91492
0.57477      162.9337   14.87044
0.57533      172.5521   15.39779
0.57588      188.3795   14.97859
0.57644      175.3291   15.0296
0.57701      186.5741   14.97468
0.57757      166.4434   14.98449
0.57813      179.2453   14.94229
0.57869      206.25     15.31059
0.57926      184.1904   14.85685
0.57982      170.3951   15.08947
0.58039      171.8642   14.86758
0.58096      152.801    14.63815
0.58152      175.4278   14.79401
0.58209      183.9576   15.08981
0.58266      172.6147   14.67762
0.58323      166.1872   15.0879
0.5838     161.0928   15.10345
0.58437      169.9249   14.8305
0.58495      164.468    14.7619
0.58552      182.8321   15.18512
0.58609      179.193    15.07272
0.58667      167.7974   14.9646
0.58724      160.1721   14.72031
0.58782      202.8672   15.00488
0.5884     170.2054   14.95367
0.58898      161.5195   14.78664
0.58956      174.7506   14.60941
0.59014      173.009    15.20012
0.59072      188.6883   15.0424
0.5913     169.8604   14.99312
0.59188      174.0004   14.91342
0.59247      202.1652   15.0107
0.59305      161.5263   14.63304
0.59363      202.6816   15.1025
0.59422      216.6016   15.51999
0.59481      199.4678   15.09908
0.5954     187.4865   15.01486
0.59598      201.8006   14.50889
0.59657      195.0125   15.06764
0.59717      172.6074   14.9706
0.59776      165.7891   14.90999
0.59835      186.4363   14.79498
0.59894      169.6308   14.96815
0.59954      159.5008   14.96306
0.60013      173.269    14.78623
0.60073      174.4955   14.88282
0.60132      191.8615   14.86017
0.60192      169.4719   14.96052
0.60252      196.4435   15.24079
0.60312      142.4185   15.06609
0.60372      171.7941   14.93231
0.60432      177.0039   14.99884
0.60492      184.2707   14.94876
0.60553      172.7026   14.90688
0.60613      171.404    14.51962
0.60673      145.6245   14.82755
0.60734      170.1598   14.91
0.60795      165.9951   14.79398
0.60855      171.9357   15.10619
0.60916      182.3325   14.9647
0.60977      160.5636   14.88343
0.61038      187.324    15.00772
0.61099      190.4024   14.95506
0.61161      184.2107   14.95883
0.61222      187.4642   14.95099
0.61283      155.6862   14.68273
0.61345      178.4563   15.05234
0.61406      191.9995   14.87811
0.61468      216.8846   15.41372
0.6153     165.4364   14.94987
0.61592      195.8284   15.22687
0.61654      197.8502   15.15201
0.61716      171.9582   15.02297
0.61778      219.3868   15.35283
0.6184     177.8608   14.89227
0.61902      161.9364   14.90786
0.61965      202.0141   15.15793
0.62027      177.76     15.26811
0.6209     172.9616   15.01483
0.62153      145.285    14.62095
0.62215      206.4403   14.80221
0.62278      176.1935   14.59962
0.62341      161.6897   14.91018
0.62404      176.3734   15.02367
0.62468      166.2815   14.7664
0.62531      172.9642   15.09862
0.62594      178.2995   14.80859
0.62658      184.0526   14.95174
0.62721      192.0848   15.10259
0.62785      185.2856   14.90522
0.62849      196.2021   15.06964
0.62912      172.8985   14.70368
0.62976      196.0558   14.96697
0.6304     216.3444   15.4504
0.63105      172.0698   14.93162
0.63169      219.1257   15.15311
0.63233      213.0218   14.67128
0.63298      208.8388   15.13434
0.63362      172.4859   14.91026
0.63427      194.0049   14.92776
0.63492      168.3105   14.89109
0.63556      176.1616   14.88017
0.63621      204.8461   14.98281
0.63686      162.5151   14.69495
0.63752      167.6101   14.84379
0.63817      178.7526   15.07946
0.63882      161.4795   15.00268
0.63948      196.8947   14.89595
0.64013      199.9346   14.87208
0.64079      191.3355   15.23544
0.64145      169.7499   14.63576
0.6421     213.6073   15.41017
0.64276      169.7273   14.68724
0.64342      193.0391   14.74522
0.64408      199.2404   14.97077
0.64475      181.5697   14.98226
0.64541      192.7855   15.27321
0.64608      206.0788   15.13725
0.64674      178.899    14.62185
0.64741      190.2789   15.13763
0.64808      194.7851   14.91313
0.64874      219.0855   15.18444
0.64941      196.4041   14.86364
0.65008      203.4414   15.05182
0.65076      180.3519   14.99259
0.65143      183.9303   15.31674
0.6521     181.7679   14.86255
0.65278      203.6952   14.99286
0.65345      204.4755   15.30935
0.65413      207.4512   15.33638
0.65481      198.104    15.40138
0.65549      204.1378   15.163
0.65617      182.3938   14.77727
0.65685      228.2676   15.4439
0.65753      181.0518   14.86866
0.65821      205.0628   15.1071
0.6589     248.0668   15.82646
0.65958      188.3777   14.85501
0.66027      196.0288   14.68739
0.66096      204.1143   14.89628
0.66165      225.6069   15.30779
0.66234      163.2459   14.82872
0.66303      174.4776   14.8687
0.66372      238.3414   15.35728
0.66441      196.2946   15.19678
0.66511      200.5006   15.30175
0.6658     211.8494   15.37397
0.6665     177.3821   15.26454
0.6672     199.1298   14.8617
0.6679     223.7284   15.17013
0.66859      183.2078   15.08236
0.6693     189.0697   15.22643
0.67       206.9074   15.36222
0.6707     190.8044   15.17349
0.6714     210.162    14.83178
0.67211      197.7404   15.33457
0.67282      206.927    15.23104
0.67352      188.8605   14.92507
0.67423      194.9477   15.01614
0.67494      184.5219   15.23489
0.67565      222.8201   15.46621
0.67636      211.7608   15.10461
0.67708      218.5127   15.15092
0.67779      196.7455   15.06844
0.67851      201.9056   15.04663
0.67922      205.7254   15.12273
0.67994      213.3024   15.62744
0.68066      222.5721   15.18991
0.68138      214.9471   15.56061
0.6821     235.3664   15.4555
0.68282      209.6437   15.40299
0.68354      212.9993   15.23399
0.68427      228.9279   15.26349
0.68499      238.9062   15.49353
0.68572      215.4046   15.11619
0.68645      205.6657   15.50802
0.68718      237.523    15.56958
0.68791      202.5398   15.27696
0.68864      200.5185   15.51851
0.68937      218.6983   15.18022
0.6901     211.1671   15.45372
0.69084      229.7871   15.37146
0.69157      210.6067   15.11461
0.69231      228.4155   15.61815
0.69305      194.8062   15.22053
0.69379      217.2463   15.31307
0.69453      195.4574   15.09896
0.69527      221.2943   15.4058
0.69602      205.2739   15.06931
0.69676      245.1966   15.27727
0.69751      191.456    14.91509
0.69825      209.4603   15.32354
0.699      229.1433   15.31444
0.69975      231.6421   15.43184
0.7005     210.9094   15.7801
0.70125      226.4642   15.22224
0.702      238.2044   15.43547
0.70276      211.5313   15.26699
0.70351      224.0204   15.49087
0.70427      239.7675   15.69846
0.70503      251.6338   15.64279
0.70578      256.5239   15.88411
0.70654      233.5377   15.39672
0.70731      219.276    15.02947
0.70807      262.6528   15.83881
0.70883      220.307    15.69414
0.7096     246.245    15.68353
0.71036      223.9749   15.36527
0.71113      226.6826   15.68836
0.7119     265.0533   15.59019
0.71267      233.0375   15.57302
0.71344      246.8761   15.46853
0.71421      248.0721   15.77294
0.71499      251.4442   15.4349
0.71576      261.7424   15.63726
0.71654      254.531    15.56618
0.71731      240.9293   15.61228
0.71809      274.7075   15.96846
0.71887      262.0503   15.93978
0.71965      249.1245   15.55097
0.72044      258.1408   16.01762
0.72122      265.1823   16.40822
0.72201      253.7277   15.6174
0.72279      246.8252   15.89975
0.72358      283.2394   16.24821
0.72437      270.8634   15.91163
0.72516      254.8069   15.86316
0.72595      269.4904   15.98265
0.72674      255.3739   15.89454
0.72754      247.7113   15.83472
0.72833      241.6      15.82345
0.72913      255.7375   15.93978
0.72993      259.2274   15.72559
0.73073      255.2577   16.04032
0.73153      276.3464   16.24739
0.73233      289.7555   16.08662
0.73313      258.8022   16.32748
0.73394      284.4453   16.45282
0.73474      276.1522   16.10863
0.73555      284.2645   16.08798
0.73636      293.2787   16.2166
0.73717      286.3707   16.47979
0.73798      297.4865   16.20016
0.73879      277.9408   16.31452
0.73961      303.8895   16.31441
0.74042      309.1359   16.62355
0.74124      265.8181   16.16027
0.74206      312.3713   16.4883
0.74287      314.582    16.57158
0.7437     345.4257   17.03595
0.74452      317.671    16.8265
0.74534      326.0486   16.65124
0.74617      308.4341   16.68651
0.74699      333.0844   16.85602
0.74782      307.3012   16.88537
0.74865      319.7019   16.6226
0.74948      328.7724   17.13409
0.75031      306.8168   16.64094
0.75114      344.9018   17.13594
0.75198      332.4891   16.75548
0.75281      322.6901   16.77777
0.75365      358.1096   17.37846
0.75449      352.7478   17.32991
0.75533      372.5195   17.61452
0.75617      358.7134   17.29068
0.75701      367.1688   17.7398
0.75786      356.6686   17.68413
0.7587     339.5279   17.18937
0.75955      345.6252   17.34508
0.7604     362.0183   17.7383
0.76125      369.2964   17.70821
0.7621     372.3145   17.56351
0.76295      363.8092   17.60154
0.76381      388.2314   18.19146
0.76466      359.3294   17.81145
0.76552      395.7242   18.639
0.76638      395.9903   18.74576
0.76724      382.8633   18.08919
0.7681     390.1577   18.32031
0.76896      380.9419   18.06318
0.76983      389.9745   18.22098
0.77069      403.2365   18.83158
0.77156      433.1968   18.84673
0.77243      422.8976   18.84194
0.7733     440.7988   18.62216
0.77417      414.5383   18.65002
0.77504      450.3912   19.36401
0.77592      434.9259   19.16421
0.77679      467.6567   19.80745
0.77767      467.5398   19.36439
0.77855      468.6242   19.5896
0.77943      471.3778   19.81324
0.78031      477.4744   19.97038
0.7812     479.3492   19.98759
0.78208      490.1202   20.21121
0.78297      538.2264   21.45856
0.78386      508.3601   20.84299
0.78475      524.8379   21.53219
0.78564      545.7685   21.4548
0.78653      530.0604   21.36213
0.78742      576.6002   21.9698
0.78832      525.9758   21.07588
0.78922      536.4047   21.76159
0.79011      591.3789   22.85161
0.79101      551.8802   21.46023
0.79192      553.3608   21.97439
0.79282      597.9476   23.13535
0.79372      615.6832   23.61972
0.79463      629.785    24.11284
0.79554      573.9005   22.30502
0.79645      606.1455   23.56954
0.79736      616.8353   24.17719
0.79827      677.7417   25.45009
0.79919      636.8475   24.24087
0.8001     693.5939   26.10431
0.80102      661.2998   24.56944
0.80194      699.1987   26.35925
0.80286      660.713    25.2806
0.80378      728.4179   27.1247
0.8047     735.3318   27.49376
0.80563      757.3425   28.25239
0.80656      789.8248   29.35017
0.80749      774.204    29.31228
0.80842      848.5351   31.87434
0.80935      760.3706   28.69658
0.81028      800.4089   30.25838
0.81122      908.3265   34.81004
0.81215      896.2025   34.85206
0.81309      895.468    34.02629
0.81403      898.8545   34.84562
0.81497      940.661    36.76685
0.81591      992.7245   38.58782
0.81686      885.2105   33.59512
0.8178     1006.753   39.53645
0.81875      1000.653   39.55613
0.8197     975.8292   39.12948
0.82065      1034.857   42.29787
0.82161      997.7491   39.82866
0.82256      1059.689   43.89848
0.82352      1082.776   44.56254
0.82448      1163.627   49.59289
0.82544      1177.251   49.56613
0.8264     1147.675   48.63985
0.82736      1170.661   50.11086
0.82832      1317.972   62.31322
0.82929      1256.383   57.03415
0.83026      1379.3     68.12141
0.83123      1391.294   69.50659
0.8322     1269.019   57.02757
0.83317      1272.25    58.67256
0.83415      1388.825   69.54476
0.83512      1365.207   66.88245
0.8361     1645.564   101.9659
0.83708      1481.829   80.1119
0.83806      1544.261   87.6256
0.83905      1605.488   94.01254
0.84003      1626.146   94.01775
0.84102      1512.829   82.44731
0.84201      2212.749   234.5647
0.843      2224.756   235.002
0.84399      2092.749   193.4954
0.84598      1933.072   150.9548
0.84698      1934.946   151.0665
0.84798      1528.421   85.09364
0.84898      1804.817   128.1084
0.84998      2243.263   238.2214
0.85199      1814.55    128.3171
0.85401      1767.512   120.2115
0.85502      1704.557   107.6164
0.85705      1738.037   113.5143
0.85807      1862.535   139.1106
0.86011      2263.592   243.1425
0.86215      1521.842   82.8481
0.86318      2258.62    244.7238
0.86421      1735.249   113.8878
0.86524      2008.133   171.7793
0.8673     2021.446   172.1346
0.86834      1734.004   114.1028
0.86937      2027.149   172.5079
0.87041      1935.365   153.9837
0.87145      1882.252   140.3774
0.8725     1745.675   114.3072
0.87354      1673.715   103.3424
0.87459      1514.043   83.10592
0.87564      2035.605   173.663
0.87669      1528.658   83.12917
0.87774      1643.418   99.0577
0.87879      2295.682   253.2234
0.87985      1625.198   95.19295
0.88197      1546.121   85.81126
0.88303      1550.105   85.83125
0.88409      1655.328   99.26063
0.88516      1488.221   78.78506
0.88622      1677.402   103.8372
0.88729      2031.67    175.8701
0.88837      1586.803   91.95488
0.88944      1666.704   99.4354
0.89051      1740.272   115.2776
0.89159      2139.344   206.9064
0.89267      1538.961   83.44291
0.89375      1555.744   86.06302
0.89483      1476.188   76.93725
0.89592      1397.059   68.82256
0.89701      1549.662   86.1453
0.8981     1349.306   65.08253
0.89919      1187.88    50.38401
0.90028      1308.901   60.91755
0.90137      1399.45    68.88243
0.90247      1393.3     68.90466
0.90357      1422.859   71.85473
0.90467      1530.162   83.70296
0.90577      1372.457   65.11804
0.90688      1275.523   58.32504
0.90799      1215.594   53.96296
0.9091     1353.986   64.02937
0.91021      1183.647   50.99336
0.91132      1225.597   53.30725
0.91243      1134.936   48.0513
0.91355      1107.174   45.15509
0.91467      1158.165   49.46831
0.91579      1051.552   43.15058
0.91692      1132.954   47.16615
0.91804      1118.105   46.77065
0.91917      1031.336   40.48343
0.9203     982.8256   37.0223
0.92143      961.0806   37.30012
0.92256      986.5573   37.88279
0.9237     937.8031   35.59024
0.92484      926.1625   36.19633
0.92598      859.0878   32.22874
0.92712      872.6577   32.59578
0.92826      893.4575   34.0228
0.92941      876.6445   33.01337
0.93056      798.3119   29.52129
0.93171      812.7202   30.43261
0.93286      806.4007   30.23529
0.93402      742.6606   27.46774
0.93517      701.1923   26.28565
0.93633      704.8485   25.92672
0.9375     700.1545   25.48781
0.93866      691.7411   25.65342
0.93982      655.3838   24.10945
0.94099      696.204    25.9667
0.94216      658.4023   24.36765
0.94334      656.7066   24.15855
0.94451      634.4305   23.59084
0.94569      633.9869   23.99977
0.94687      595.2272   22.12763
0.94805      587.5686   22.00587
0.94923      584.1737   22.10225
0.95042      520.162    20.69312
0.9516     515.7915   20.74907
0.95279      523.0623   20.4906
0.95398      506.2006   20.55188
0.95518      531.4319   20.63445
0.95638      493.9525   20.14364
0.95757      484.8047   19.58819
0.95878      496.1868   19.68567
0.95998      438.3389   19.20324
0.96119      445.6046   18.87656
0.96239      392.1921   17.60922
0.9636     413.0292   18.35165
0.96482      411.588    18.34012
0.96603      439.8157   18.57444
0.96725      436.9249   18.1478
0.96847      395.369    17.71833
0.96969      394.749    17.55854
0.97091      412.629    18.09137
0.97214      370.6425   17.27608
0.97337      404.2026   17.70182
0.9746     331.7097   17.03221
0.97583      388.4455   17.72593
0.97707      371.1423   17.01079
0.97831      353.9137   16.40963
0.97955      339.1372   16.70863
0.98079      327.6674   16.50966
0.98203      332.2916   16.52158
0.98328      336.1326   16.61144
0.98453      324.874    16.51471
0.98578      308.2885   16.29714
0.98704      313.5058   15.87389
0.9883     283.51     15.61034
0.98956      287.1861   15.90591
0.99082      301.3537   15.88169
0.99208      261.7239   15.61704
0.99335      309.6788   16.10373
0.99462      260.4275   15.50349
0.99589      296.6103   15.82884
0.99716      256.7313   15.33464
0.99844      276.8582   15.72802
0.99972      255.1794   15.43235
1.001      257.1161   15.55044
1.00228      256.434    15.30531
1.00357      238.245    14.79664
1.00486      281.3251   15.31315
1.00615      233.76     14.63486
1.00744      260.0436   15.10283
1.00874      208.4842   14.60718
1.01004      224.5745   15.17076
1.01134      223.8533   14.89366
1.01264      232.8555   14.8936
1.01395      231.9652   14.93873
1.01526      211.4993   14.67367
1.01657      214.0546   14.76303
1.01788      232.4561   14.81166
1.0192     232.4649   14.79293
1.02052      240.522    14.93462
1.02184      212.1168   14.68749
1.02317      213.3599   14.5629
1.02449      204.8692   14.35317
1.02582      234.0188   14.54456
1.02715      236.5187   14.5536
1.02849      223.9745   14.68988
1.02983      201.4495   14.46335
1.03116      200.2549   14.40507
1.03251      221.723    14.75263
1.03385      204.7436   14.69078
1.0352     180.4059   14.32009
1.03655      201.9364   14.68581
1.0379     190.9812   14.20675
1.03926      200.1344   14.38985
1.04062      186.4186   14.24183
1.04198      197.7327   14.21191
1.04334      189.2969   14.47324
1.04471      184.97     14.21351
1.04608      211.7564   14.61187
1.04745      177.6171   14.05346
1.04882      189.3225   14.14902
1.0502     170.3382   14.24937
1.05158      202.5409   14.3726
1.05296      183.1294   14.15755
1.05435      191.6775   14.10039
1.05573      182.6352   14.16934
1.05712      148.7684   14.11027
1.05852      185.2676   14.1182
1.05991      183.3042   14.27516
1.06131      190.1967   14.11201
1.06271      190.2489   14.07295
1.06412      159.8215   13.89778
1.06553      184.7823   13.91009
1.06694      159.1228   13.92511
1.06835      190.218    14.2707
1.06976      188.5329   13.91191
1.07118      166.9406   13.80695
1.0726     166.9424   14.04776
1.07403      180.0045   13.93937
1.07545      133.1896   13.74993
1.07688      195.16     13.89303
1.07832      151.4519   13.81596
1.07975      151.5939   13.88542
1.08119      145.8175   13.77772
1.08263      154.6752   13.947
1.08407      134.1919   13.77609
1.08552      169.3233   13.86831
1.08697      183.1694   14.05156
1.08843      157.0799   13.52764
1.08988      136.5355   13.90224
1.09134      131.4845   13.67115
1.0928     166.319    13.89206
1.09427      148.4898   13.91124
1.09573      166.1555   13.64009
1.0972     138.9935   13.65056
1.09868      162.2894   14.0489
1.10015      147.7798   13.81168
1.10163      164.9372   13.68417
1.10311      151.5037   13.72013
1.1046     152.1761   13.777
1.10609      138.0038   13.53431
1.10758      125.2648   13.32856
1.10907      160.0159   13.57282
1.11057      129.0642   13.49725
1.11207      142.8907   13.56751
1.11358      128.982    13.47905
1.11508      125.1527   13.33597
1.11659      131.2329   13.85721
1.1181     142.8438   13.36921
1.11962      135.5152   13.58755
1.12114      137.048    13.49768
1.12266      148.3331   13.51868
1.12418      130.9291   13.37014
1.12571      148.8561   13.32305
1.12724      137.2696   13.47062
1.12878      121.469    13.37873
1.13032      128.1733   13.77421
1.13186      139.4204   13.49223
1.1334     142.3694   13.56632
1.13495      126.8985   13.44673
1.1365     113.6469   13.54296
1.13805      126.2973   13.55324
1.13961      100.4819   13.523
1.14117      121.2031   13.44957
1.14273      109.1126   13.27592
1.1443     139.7915   13.60065
1.14586      117.7703   13.40983
1.14744      135.9473   13.73179
1.14901      123.2105   13.52165
1.15059      118.178    13.49365
1.15217      117.3292   13.31045
1.15376      116.3924   13.2407
1.15535      134.3492   13.35708
1.15694      118.7206   13.49583
1.15854      127.829    12.98815
1.16013      106.4303   12.98517
1.16174      138.8749   13.31556
1.16334      122.8832   13.23632
1.16495      117.1507   13.37313
1.16656      113.3017   13.23114
1.16818      106.4457   13.54237
1.16979      111.3475   13.17146
1.17142      140.4879   13.16985
1.17304      115.2301   13.15751
1.17467      94.41147   12.91047
1.1763     135.9375   13.41435
1.17794      109.5378   13.46121
1.17958      121.454    13.06209
1.18122      116.1172   12.98611
1.18287      118.7138   13.20582
1.18452      149.33     13.62706
1.18617      115.21     13.2284
1.18782      103.2383   13.04016
1.18948      109.9845   13.3307
1.19115      110.3879   13.01015
1.19281      108.9691   13.34524
1.19448      113.9323   12.92678
1.19616      125.2411   13.27309
1.19784      126.1209   13.18867
1.19952      119.7848   13.04788
1.2012     119.0308   13.21013
1.20289      130.725    13.12905
1.20458      122.6851   13.39157
1.20627      138.61     13.35118
1.20797      118.5746   12.97911
1.20968      115.0914   12.91284
1.21138      113.211    12.88425
1.21309      84.08819   12.9394
1.2148     123.836    13.30347
1.21652      111.9327   13.06066
1.21824      131.0415   13.13328
1.21996      103.8916   13.17756
1.22169      124.6955   13.13666
1.22342      116.0884   13.19398
1.22516      100.4539   12.84249
1.2269     103.3876   13.01878
1.22864      117.5126   13.37984
1.23038      116.8959   13.37274
1.23213      117.1228   13.19781
1.23389      114.523    13.31981
1.23564      96.46922   13.03733
1.23741      117.2575   13.29173
1.23917      107.4722   13.12633
1.24094      118.934    13.03982
1.24271      109.5073   13.01433
1.24449      114.9839   13.12864
1.24627      115.2955   12.97925
1.24805      113.5593   12.95995
1.24984      101.8645   13.17293
1.25163      118.46     13.06684
1.25342      98.6759    12.89549
1.25522      84.81358   13.09176
1.25703      115.3485   12.99609
1.25883      115.5635   12.84641
1.26064      116.4909   13.049
1.26246      93.42133   13.00914
1.26428      121.4055   13.07263
1.2661     118.7746   13.13976
1.26793      78.82949   12.88132
1.26976      106.9907   13.2826
1.27159      87.28942   13.00104
1.27343      113.992    12.93029
1.27527      105.8954   13.11837
1.27712      106.0587   13.02174
1.27897      102.0504   12.99377
1.28082      86.10589   12.74963
1.28268      76.6015    12.83378
1.28454      104.5919   12.91355
1.28641      114.5669   12.802
1.28828      92.07894   12.76238
1.29015      118.9228   12.91961
1.29203      68.43709   12.93958
1.29392      93.20116   12.94233
1.2958     111.9471   12.70212
1.2977     114.7262   13.09917
1.29959      103.4994   12.93396
1.30149      114.178    12.94123
1.30339      105.7913   12.85651
1.3053     96.45751   12.95376
1.30721      110.4605   13.11699
1.30913      116.0566   13.00995
1.31105      96.54831   12.84667
1.31297      89.13045   12.81866
1.3149     106.8214   13.19304
1.31684      84.27943   12.87976
1.31877      110.0213   12.88795
1.32071      83.93427   12.77959
1.32266      87.69022   12.99486
1.32461      100.6269   13.07415
1.32657      122.6723   12.85925
1.32853      99.67293   13.01021
1.33049      78.33821   12.80108
1.33246      97.18523   12.90619
1.33443      119.0325   12.96531
1.3364     110.6101   13.03823
1.33838      99.12363   12.78529
1.34037      105.2364   12.89499
1.34236      96.19592   12.96857
1.34435      107.4776   12.67766
1.34635      96.49454   12.89123
1.34836      85.87392   12.74964
1.35036      93.82677   12.90261
1.35237      93.6167    12.78904
1.35439      108.7505   12.82477
1.35641      95.74457   12.83967
1.35844      122.1058   13.07211
1.36047      97.48522   12.75293
1.3625     96.49229   12.97261
1.36454      95.78809   12.70026
1.36658      115.4299   12.60644
1.36863      101.3023   12.60095
1.37068      81.22175   12.82493
1.37274      104.0221   12.84754
1.3748     122.9238   12.89807
1.37687      100.6567   12.50275
1.37894      105.3547   12.80014
1.38102      81.49453   12.94294
1.3831     98.91267   12.63565
1.38518      83.68256   12.85163
1.38728      87.8007    12.72051
1.38937      90.24966   12.6157
1.39147      112.3437   12.6726
1.39357      90.82977   12.70622
1.39568      85.93301   12.77178
1.3978     102.0086   12.82262
1.39992      114.0481   12.73245
1.40204      90.36992   12.75613
1.40417      115.0586   12.80401
1.4063     83.00682   12.72545
1.40844      121.775    12.73597
1.41058      95.12772   12.91094
1.41273      91.31363   12.64294
1.41488      99.56596   12.72337
1.41704      102.8152   12.69753
1.4192     98.91748   12.86448
1.42137      121.5308   12.72262
1.42355      84.43912   12.5712
1.42572      100.8844   12.50316
1.42791      93.78228   12.59404
1.43009      91.51379   12.65715
1.43229      105.2957   12.66837
1.43448      91.74854   12.62553
1.43669      87.55984   12.71977
1.43889      113.0793   12.74192
1.44111      92.10955   12.52475
1.44333      61.73198   12.48463
1.44555      120.8459   12.92354
1.44778      100.3324   12.7137
1.45001      101.5491   12.80781
1.45225      116.3005   12.79669
1.45449      98.82513   12.64477
1.45674      116.2032   12.85673
1.459      74.72528   12.61364
1.46126      107.3744   12.52285
1.46352      90.13487   12.75591
1.46579      113.22     12.73693
1.46807      83.66975   12.59898
1.47035      103.0375   12.52752
1.47263      77.37874   12.56826
1.47492      81.0197    12.715
1.47722      94.59084   12.64957
1.47952      118.4334   13.01121
1.48183      93.41494   12.49203
1.48414      100.0938   12.91156
1.48646      106.9446   12.57711
1.48879      77.56393   12.47234
1.49111      77.06661   12.75357
1.49345      118.9725   12.7302
1.49579      78.73087   12.77521
1.49814      93.17974   12.75842
1.50049      82.87421   12.66108
1.50284      81.21115   12.44336
1.50521      105.5014   12.5296
1.50757      85.09719   12.56971
1.50995      100.6321   12.68873
1.51233      94.39987   12.81123
1.51471      75.29007   12.33947
1.5171     106.3762   12.7778
1.5195     74.71734   12.51586
1.5219     63.38899   12.46959
1.5243     94.14707   12.52687
1.52672      96.32227   12.58328
1.52914      107.4208   12.52564
1.53156      102.2483   12.74886
1.53399      109.8048   12.84672
1.53643      74.65383   12.64698
1.53887      91.29947   12.46823
1.54132      143.2809   12.82844
1.54377      105.7182   12.47571
1.54623      83.51247   12.69279
1.54869      101.7908   12.76371
1.55117      97.60636   12.62394
1.55364      102.9783   12.55165
1.55613      94.33163   12.46407
1.55862      108.5918   12.58266
1.56111      81.46673   12.30997
1.56361      92.46719   12.7571
1.56612      100.5627   12.61111
1.56863      88.78207   12.59151
1.57115      88.94606   12.47412
1.57368      91.70318   12.48096
1.57621      99.16769   12.37933
1.57874      96.77503   12.42192
1.58129      104.2823   12.7041
1.58384      92.6569    12.53176
1.58639      105.6236   12.48329
1.58895      89.23272   12.41573
1.59152      103.1873   12.53692
1.5941     115.1521   12.74389
1.59668      115.3069   12.5125
1.59926      97.96062   12.45657
1.60186      64.75446   12.55968
1.60446      98.17036   12.55738
1.60706      119.2823   12.43325
1.60968      104.5629   12.4585
1.6123     98.68859   12.46108
1.61492      104.7067   12.46734
1.61755      99.72675   12.42915
1.62019      86.79502   12.36644
1.62283      80.00913   12.4537
1.62548      84.78806   12.49565
1.62814      88.40409   12.41939
1.63081      93.34832   12.53328
1.63348      79.70058   12.51823
1.63615      93.75314   12.63877
1.63884      81.86488   12.37424
1.64153      88.32416   12.30455
1.64422      100.235    12.3646
1.64693      96.09491   12.44945
1.64964      97.66568   12.49502
1.65235      85.46483   12.49619
1.65508      75.70494   12.28347
1.65781      71.31454   12.55489
1.66054      88.93668   12.47346
1.66329      108.5241   12.65919
1.66604      105.7101   12.46189
1.6688     90.85627   12.34562
1.67156      81.94655   12.15033
1.67433      70.06646   12.34348
1.67711      97.94614   12.49889
1.6799     71.12938   12.39868
1.68269      83.25552   12.43014
1.68549      80.17485   12.36222
1.68829      106.5787   12.42228
1.6911     99.74722   12.36106
1.69392      104.4305   12.41033
1.69675      88.28522   12.2256
1.69958      86.13749   12.39842
1.70243      85.11898   12.38802
1.70527      93.21027   12.41768
1.70813      65.20732   12.23802
1.71099      79.60796   12.47498
1.71386      96.16068   12.33851
1.71674      78.76427   12.21701
1.71962      105.6892   12.62317
1.72252      102.8812   12.39497
1.72541      92.33247   12.24024
1.72832      68.63406   12.39383
1.73123      68.56147   12.32673
1.73415      89.94958   12.43539
1.73708      87.68082   12.38308
1.74002      104.8599   12.47677
1.74296      117.3768   12.37597
1.74591      101.9458   12.51449
1.74887      80.29726   12.28657
1.75184      92.13206   12.2702
1.75481      90.77447   12.17729
1.75779      99.00291   12.58263
1.76078      94.27436   12.56609
1.76377      95.99109   12.63687
1.76678      101.2312   12.40026
1.76979      92.92004   12.25113
1.77281      97.61224   12.6243
1.77584      105.0775   12.53067
1.77887      86.3246    12.11604
1.78191      83.7308    12.33332
1.78496      83.78562   12.22446
1.78802      85.56255   12.42096
1.79109      91.73597   12.24316
1.79416      76.2782    12.42152
1.79724      88.93376   12.48918
1.80033      81.71252   12.34565
1.80343      98.19994   12.30328
1.80654      90.46561   12.19971
1.80965      84.83195   12.46548
1.81277      93.68346   12.39043
1.8159     96.74157   12.29204
1.81904      82.15831   12.15037
1.82219      81.53101   12.19943
1.82534      77.56709   12.29365
1.8285     78.15353   12.39395
1.83167      122.6641   12.40828
1.83485      94.59734   12.13768
1.83804      92.94952   12.18169
1.84123      94.54074   12.13395
1.84444      98.53094   12.22898
1.84765      81.58974   12.45554
1.85087      104.6026   12.42087
1.8541     98.63013   12.40066
1.85734      103.302    12.27547
1.86058      84.19977   12.46811
1.86384      76.34987   12.31863
1.8671     107.7791   12.37788
1.87037      102.5443   12.34729
1.87365      71.51712   12.25957
1.87694      101.305    12.20446
1.88024      77.04218   12.26875
1.88355      103.0307   12.16895
1.88686      108.6666   12.3292
1.89018      84.8313    12.2385
1.89352      79.25728   12.08957
1.89686      104.1793   12.1879
1.90021      80.54931   12.20603
1.90357      94.88025   12.29648
1.90693      105.7642   12.29595
1.91031      76.97922   12.37015
1.9137     80.86269   12.39886
1.91709      91.56961   12.10281
1.9205     101.0455   12.25399
1.92391      103.0405   12.36468
1.92733      82.07232   12.15985
1.93076      111.9202   12.21306
1.9342     115.7249   12.17087
1.93765      89.86937   12.08622
1.94111      82.73027   12.30701
1.94458      105.4771   12.25329
1.94806      73.09335   12.22785
1.95154      72.64008   12.35691
1.95504      78.77342   12.40825
1.95855      88.90601   12.12075
1.96206      99.87149   12.26023
1.96558      100.6215   11.99656
1.96912      100.1767   12.08282
1.97266      82.44162   12.30155
1.97622      96.77612   12.26645
1.97978      85.62591   12.28106
1.98335      68.49293   12.10617
1.98693      103.997    12.20217
1.99052      82.90213   12.14273
1.99412      92.04181   12.17736
1.99774      68.56579   12.13172
2.00136      88.71733   12.226
2.00499      88.96876   12.2739
2.00863      81.67728   12.01978
2.01228      102.3433   12.22962
2.01594      95.01836   12.12418
2.01961      91.34873   12.07375
2.02329      83.74448   12.33434
2.02698      69.52882   12.29537
2.03068      78.80909   11.94259
2.0344     75.10883   12.05966
2.03812      90.44777   12.16932
2.04185      78.91334   12.12839
2.04559      63.09147   12.26473
2.04934      89.67764   12.18914
2.0531     87.67059   12.22738
2.05688      109.1373   12.3568
2.06066      79.65555   12.21968
2.06445      103.7806   12.25294
2.06826      82.25318   12.04735
2.07207      92.64085   12.18932
2.0759     81.91663   12.13212
2.07973      99.87708   12.26057
2.08358      92.15034   12.04419
2.08744      81.08475   12.16534
2.0913     77.57386   12.0893
2.09518      91.54163   12.17202
2.09907      89.11242   12.16446
2.10297      94.78343   12.06808
2.10688      82.64785   12.04577
2.1108     97.42638   12.21238
2.11474      94.55325   12.17624
2.11868      98.556     12.17693
2.12264      101.6207   12.27663
2.1266     81.43418   11.86436
2.13058      82.5812    12.23045
2.13457      85.09689   12.05769
2.13857      100.5795   12.08223
2.14258      81.65248   12.17624
2.1466     112.3595   12.2143
2.15063      101.0479   12.13675
2.15468      110.1225   12.2177
2.15874      107.3852   12.0361
2.1628     81.9744    12.10475
2.16688      102.8855   12.17283
2.17097      100.568    12.14571
2.17508      101.8399   12.18565
2.17919      80.74467   12.0592
2.18331      96.12313   12.04799
2.18745      103.729    12.07353
2.1916     84.00262   11.90434
2.19576      90.44055   12.04021
2.19994      85.85025   12.03726
2.20412      98.72905   12.17462
2.20832      89.53997   12.07788
2.21252      80.73147   12.0266
2.21675      103.4458   12.14357
2.22098      92.11955   11.96009
2.22522      107.0704   12.0061
2.22948      80.27226   11.91396
2.23375      94.94793   11.99858
2.23803      88.97497   12.05314
2.24233      87.88579   12.00613
2.24663      70.11227   11.99014
2.25095      73.81091   12.41947
2.25528      84.29734   12.06006
2.25963      97.26768   12.02926
2.26398      71.15062   11.93736
2.26835      85.5034    11.92462
2.27273      102.7819   11.91966
2.27713      94.25995   11.96714
2.28153      79.55442   12.06395
2.28595      81.57188   11.88961
2.29039      88.797     12.02651
2.29483      94.39284   11.96256
2.29929      78.06053   11.77618
2.30376      92.81412   11.97914
2.30825      115.3535   11.9961
2.31275      94.22938   12.05885
2.31726      83.38685   11.88907
2.32178      84.55447   12.21811
2.32632      88.35271   12.00996
2.33087      115.7209   11.99427
2.33543      93.78586   12.0028
2.34001      103.0774   11.87787
2.3446     78.7216    11.96756
2.34921      98.95129   11.98122
2.35382      93.0228    11.97947
2.35846      77.5569    11.83003
2.3631     86.23702   11.82
2.36776      79.20324   11.89456
2.37243      90.11794   11.93483
2.37712      64.50236   11.91295
2.38182      61.18339   12.01293
2.38653      76.96909   11.81554
2.39126      79.08683   11.91681
2.39601      83.89388   11.76676
2.40076      90.20971   11.87286
2.40553      75.51424   11.74833
2.41032      91.64276   11.99641
2.41512      91.18208   12.09062
2.41993      97.41871   11.87295
2.42476      86.55347   11.95575
2.4296     69.11254   11.93908
2.43446      104.2965   12.02196
2.43933      106.5292   12.09342
2.44422      74.89846   11.73094
2.44912      75.71282   11.76403
2.45404      90.61092   11.85942
2.45897      71.72263   11.76383
2.46391      116.7889   12.0625
2.46887      98.34158   11.91809
2.47385      89.85519   11.80866
2.47884      80.08588   11.96185
2.48385      93.7121    11.95787
2.48887      84.08806   11.91051
2.4939     84.65327   11.76443
2.49895      73.64346   11.90592
2.50402      98.69386   11.79229
2.5091     97.58485   11.9337
2.5142     75.60265   11.77105
2.51931      105.244    11.83084
2.52444      84.39059   11.73179
2.52959      100.3412   11.90534
2.53475      97.89642   11.90286
2.53992      84.15275   11.97431
2.54512      93.77898   11.71745
2.55032      89.75644   11.86936
2.55555      84.91028   11.7686
2.56079      88.3147    11.8807
2.56604      88.8774    11.98944
2.57132      74.82858   11.95243
2.5766     68.96008   11.96192
2.58191      105.6357   11.9228
2.58723      90.79866   11.91247
2.59257      77.43334   11.86751
2.59792      111.2816   11.78527
2.60329      83.3233    11.92879
2.60868      97.4573    11.8879
2.61409      89.22729   11.88803
2.61951      99.89465   11.86586
2.62494      93.36578   12.04272
2.6304     85.61282   11.84647
2.63587      82.37345   11.85928
2.64136      76.11263   11.84313
2.64687      96.34394   11.89347
2.65239      77.11623   11.79581
2.65793      72.43255   11.85633
2.66349      119.8629   11.72988
2.66906      86.47073   11.90694
2.67466      94.50893   11.77671
2.68027      98.60665   11.78694
2.6859     73.81246   11.75537
2.69154      86.59272   11.72085
2.69721      116.2641   11.89581
2.70289      111.0582   11.74119
2.70859      96.57233   11.78272
2.71431      100.9922   11.83612
2.72004      79.52849   11.75185
2.7258     106.1182   11.63688
2.73157      103.3952   11.81478
2.73736      111.5262   11.88497
2.74317      116.3383   11.8374
2.749      96.52402   11.84179
2.75485      102.901    11.64938
2.76071      101.0573   11.71092
2.76659      110.1755   11.74575
2.7725     94.85177   11.77347
2.77842      108.3811   11.71034
2.78436      90.52945   11.72206
2.79032      91.86938   11.72021
2.7963     84.91354   11.76885
2.8023     94.0209    11.72045
2.80831      89.86164   11.66488
2.81435      82.7375    11.79803
2.82041      86.66998   11.80849
2.82648      73.13036   11.78103
2.83258      82.44183   11.73336
2.83869      100.5177   11.59891
2.84483      90.44347   11.62671
2.85098      82.4804    11.72186
2.85716      103.4483   11.86451
2.86335      121.5597   11.94555
2.86957      81.48544   11.66379
2.8758     99.33118   11.7356
2.88206      107.839    11.79973
2.88834      84.63509   11.89155
2.89463      92.83855   11.73237
2.90095      99.90817   11.84244
2.90729      96.14401   11.78054
2.91365      101.4886   11.90208
2.92003      107.4107   11.74253
2.92643      101.8492   11.8165
2.93285      97.56017   11.73452
2.93929      111.4718   11.64918
2.94576      94.17812   11.6686
2.95224      135.2643   11.89024
2.95875      106.7311   11.81463
2.96528      125.9687   11.93934
2.97183      102.0437   11.58822
2.9784     90.72462   11.73501
2.98499      99.46799   11.81557
2.99161      101.322    11.68072
2.99825      87.97621   11.85742
3.00491      103.8448   11.72681
3.01159      93.74505   11.76558
3.01829      107.5699   11.74059
3.02502      102.6638   11.88876
3.03177      96.4348    11.7988
3.03854      123.556    11.80009
3.04534      80.73719   11.75331
3.05215      103.2295   11.72484
3.05899      91.28878   11.52022
3.06586      110.429    11.66486
3.07274      122.944    11.85661
3.07965      105.8662   11.86689
3.08658      131.0117   11.96492
3.09354      100.3318   11.91699
3.10052      115.356    11.92115
3.10752      128.1778   11.94175
3.11455      125.7717   11.91987
3.1216     116.6024   11.78987
3.12868      114.8403   11.86179
3.13578      131.0819   11.93082
3.1429     128.011    11.74687
3.15005      133.5251   11.81848
3.15722      132.0412   12.00476
3.16442      109.6565   11.73841
3.17164      111.9002   11.82985
3.17889      127.4413   11.90581
3.18616      130.8777   12.07295
3.19345      141.907    11.97216
3.20078      142.7401   12.25102
3.20812      141.4156   12.109
3.21549      150.8251   12.32124
3.22289      145.3781   12.23305
3.23031      144.9682   12.47468
3.23776      150.6753   12.24453
3.24523      152.896    12.21947
3.25273      142.0395   12.21001
3.26026      170.463    12.56703
3.26781      179.6154   12.52561
3.27539      204.7013   12.89697
3.283      211.8994   12.94663
3.29063      218.9969   12.86354
3.29828      214.3711   13.18397
3.30597      264.2643   13.55441
3.31368      281.2508   13.60791
3.32142      314.0994   13.9763
3.32919      363.4088   14.82189
3.33698      387.5106   15.17555
3.3448     423.3082   16.13529
3.35265      453.8579   16.75021
3.36052      487.0998   17.41638
3.36843      559.6357   18.60188
3.37636      529.8531   18.508
3.38432      609.012    20.06766
3.3923     613.2642   20.05173
3.40032      613.7794   19.99145
3.40836      585.2931   19.37715
3.41644      568.2988   18.76369
3.42454      547.5662   18.73769
3.43267      497.4843   17.9817
3.44083      486.6836   17.30126
3.44902      470.0134   16.82853
3.45723      411.5813   15.78527
3.46548      369.1729   15.15102
3.47376      338.9143   14.40075
3.48207      312.8401   13.95178
3.4904     258.3329   13.59524
3.49877      240.5836   13.33644
3.50717      213.8401   12.95682
3.51559      210.2687   12.63061
3.52405      158.9373   12.56315
3.53254      159.7399   12.15855
3.54105      163.1918   11.84774
3.5496     161.1422   12.09695
3.55818      151.0322   12.07282
3.56679      139.0661   12.11073
3.57544      136.658    12.04535
3.58411      127.5164   11.91901
3.59282      123.1573   11.6391
3.60155      113.7472   11.85575
3.61032      126.2001   11.57012
3.61912      116.2157   11.68922
3.62796      116.9286   11.76648
3.63683      110.6036   11.70577
3.64572      122.3283   11.78681
3.65465      115.6646   11.45757
3.66362      129.7655   11.66014
3.67262      143.1417   11.70952
3.68165      120.0052   11.66004
3.69071      104.2386   11.45608
3.69981      104.7982   11.63764
3.70894      118.0437   11.41202
3.7181     106.7749   11.48419
3.7273     95.02921   11.57724
3.73653      104.6565   11.51133
3.7458     97.80575   11.5728
3.7551     102.0237   11.55396
3.76444      109.0925   11.49956
3.77381      99.35813   11.45215
3.78322      104.7789   11.33236
3.79266      98.35146   11.3166
3.80213      107.9598   11.3581
3.81165      109.2388   11.50752
3.8212     104.7366   11.54776
3.83078      129.2777   11.50772
3.8404     96.69585   11.32608
3.85006      116.6641   11.53736
3.85975      116.8795   11.56752
3.86948      87.09582   11.36751
3.87925      105.8014   11.37914
3.88905      123.4666   11.36062
3.89889      104.5338   11.35914
3.90877      98.35912   11.42574
3.91868      121.0778   11.85077
3.92864      86.6712    11.48938
3.93863      117.8619   11.45783
3.94866      120.0518   11.64338
3.95873      124.4042   11.30372
3.96883      110.4982   11.59637
3.97898      87.47691   11.39289
3.98916      101.2684   11.45549
3.99939      115.7147   11.29444
4.00965      104.9295   11.42235
4.01995      107.5672   11.4565
4.03029      122.4146   11.44017
4.04067      121.4133   11.35628
4.0511     107.8041   11.4899
4.06156      124.6423   11.67517
4.07206      107.2775   11.3406
4.08261      104.0756   11.32329
4.09319      97.66021   11.373
4.10382      105.9177   11.32541
4.11449      125.9747   11.55048
4.12519      106.5139   11.28905
4.13595      114.0191   11.39141
4.14674      129.0333   11.58206
4.15757      117.1611   11.64969
4.16845      99.75295   11.49761
4.17937      111.7038   11.48089
4.19034      95.55699   11.4127
4.20134      114.1425   11.29591
4.21239      126.7262   11.51636
4.22349      96.37453   11.50846
4.23463      107.1689   11.46504
4.24581      103.0134   11.50271
4.25703      108.9155   11.47981
4.2683     106.2792   11.34534
4.27962      122.766    11.60142
4.29098      117.0547   11.51944
4.30239      105.8376   11.44229
4.31384      115.4529   11.32642
4.32534      109.6839   11.49144
4.33688      135.3692   11.47223
4.34847      135.0334   11.36243
4.36011      114.5669   11.41976
4.37179      116.7864   11.49631
4.38352      120.5774   11.5481
4.3953     129.5971   11.38904
4.40712      102.1897   11.50903
4.41899      105.45     11.36971
4.43091      120.6678   11.58036
4.44288      106.221    11.44314
4.4549     110.685    11.54558
4.46697      111.34     11.42253
4.47908      142.7081   11.44227
4.49125      122.717    11.57156
4.50346      116.646    11.48911
4.51573      118.6824   11.51783
4.52804      113.9969   11.52394
4.54041      132.8311   11.47133
4.55282      116.3521   11.51184
4.56529      128.2884   11.44463
4.57781      139.6638   11.6141
4.59037      144.651    11.66329
4.603      139.1963   11.60162
4.61567      134.9706   11.47052
4.6284     136.515    11.57188
4.64117      151.4254   11.55297
4.65401      148.9657   11.56971
4.66689      158.2432   11.90316
4.67983      155.8254   11.81299
4.69282      178.4044   11.80205
4.70587      156.0965   11.8695
4.71897      177.6584   11.80765
4.73212      158.7089   11.83924
4.74534      185.1385   12.0437
4.7586     193.6495   12.01328
4.77192      199.623    12.35336
4.7853     213.7762   12.44538
4.79874      230.1186   12.4593
4.81223      270.3386   12.81065
4.82578      283.7593   13.31697
4.83938      306.0969   13.53574
4.85304      338.1282   14.02768
4.86676      396.7457   15.2518
4.88054      456.5564   15.82527
4.89438      512.6682   17.19919
4.90828      547.9643   17.98119
4.92223      609.1688   19.21327
4.93625      581.8481   18.41366
4.95032      602.317    18.85968
4.96446      558.5776   18.24521
4.97866      508.8404   17.22644
4.99291      446.1886   15.98284
5.00723      426.3303   15.48631
5.02161      384.9285   14.77728
5.03606      335.0673   13.74009
5.05056      315.2457   13.37276
5.06513      265.0183   13.02675
5.07976      217.5141   12.21832
5.09445      197.3665   12.17225
5.10921      187.1404   12.00335
5.12403      190.1938   11.85739
5.13892      184.7847   11.97197
5.15387      183.595    11.82702
5.16889      148.4556   11.41748
5.18397      160.7686   11.74565
5.19912      162.1973   11.64642
5.21433      168.3538   11.88265
5.22962      170.937    11.98096
5.24497      151.0707   11.57503
5.26038      140.8821   11.486
5.27587      170.9646   11.70717
5.29142      160.1499   11.37958
5.30705      158.4245   11.56918
5.32274      145.921    11.51766
5.3385     158.9534   11.64597
5.35433      153.5693   11.61075
5.37023      158.9474   11.53427
5.38621      152.2178   11.59977
5.40225      151.9174   11.69875
5.41837      153.2274   11.64811
5.43456      162.0576   11.532
5.45082      174.5567   11.70152
5.46715      141.4924   11.66997
5.48356      178.1612   11.65311
5.50004      152.2245   11.52043
5.5166     161.8806   11.64806
5.53323      156.3456   11.47382
5.54994      181.0263   11.68003
5.56672      168.8169   11.562
5.58358      148.2216   11.56124
5.60051      193.5411   11.76693
5.61753      188.9984   11.70175
5.63462      202.4382   11.81316
5.65178      182.5517   11.65981
5.66903      162.3767   11.61893
5.68636      173.3356   11.82179
5.70376      193.0557   11.70965
5.72125      185.3671   11.82634
5.73881      184.2585   11.85678
5.75646      193.9996   11.60382
5.77419      183.0885   11.64204
5.792      188.4224   11.99039
5.80989      196.5095   11.85468
5.82787      191.0706   11.83861
5.84593      165.9658   11.71511
5.86407      214.8731   12.05455
5.8823     210.6443   12.31768
5.90061      209.0674   12.15712
5.91901      217.4266   12.1925
5.9375     211.9293   12.04001
5.95607      211.0469   12.04599
5.97473      209.905    12.0437
5.99348      220.9324   12.1781
6.01231      223.116    12.20155
6.03124      236.0928   12.2712
6.05025      217.3075   12.32305
6.06935      252.9027   12.243
6.08855      222.3615   12.16691
6.10784      225.2238   12.41606
6.12721      254.276    12.64036
6.14668      251.0441   12.63651
6.16625      268.1631   12.8739
6.1859     281.2814   12.92051
6.20565      278.0748   13.02576
6.2255     292.0745   12.93244
6.24544      306.3691   13.30365
6.26548      292.1601   13.12278
6.28561      326.942    13.43716
6.30584      347.6101   13.74883
6.32617      362.6882   13.91705
6.3466     404.5853   14.93112
6.36712      412.2079   14.8385
6.38775      481.6776   15.70397
6.40847      470.0641   15.73136
6.4293     477.8203   15.90421
6.45023      502.7589   16.46364
6.47126      491.9314   16.37363
6.49239      482.2987   15.95905
6.51363      450.3039   15.426
6.53497      409.2585   14.71131
6.55642      424.3159   14.64942
6.57797      408.5421   14.58047
6.59963      399.8881   14.33206
6.6214     380.7199   14.2947
6.64327      417.8282   14.64309
6.66526      419.3083   14.71161
6.68735      435.3798   15.27369
6.70955      449.4287   15.26854
6.73187      462.7761   15.20796
6.75429      446.502    15.5107
6.77683      459.2583   15.31295
6.79948      491.7405   16.41603
6.82224      515.2325   16.47027
6.84512      526.158    16.48925
6.86811      546.1248   16.92893
6.89122      579.7656   17.60271
6.91445      622.3547   18.90482
6.93779      608.0638   18.78818
6.96125      624.1539   19.00607
6.98483      639.7013   19.32128
7.00854      651.8167   19.73052
7.03236      703.3823   20.96681
7.0563     718.3066   21.10053
7.08037      790.729    23.41241
7.10456      807.5078   23.94817
7.12887      896.2563   27.33297
7.15331      893.9891   27.26588
7.17788      942.8163   28.28679
7.20257      980.2471   29.71162
7.22739      1002.078   30.46227
7.25234      1088.759   35.44374
7.27741      1213.294   42.29284
7.30262      1168.925   39.78203
7.32796      1457.174   59.59467
7.35343      1384.583   53.59699
7.37903      1738.311   92.34076
7.40477      1858.452   110.59
7.45665      2014.595   136.3942
7.4828     2034.658   137.7341
7.50908      1756.783   91.01501
7.697      2247.191   192.9679
7.77971      1876.848   108.953
7.92054      1596.756   74.14701
7.94916      1628.123   76.17968
8.03598      1956.504   123.2943
8.06523      1921.245   116.7838
8.09464      1928.743   117.6708
8.12422      1552.073   66.56798
8.18385      2420.147   243.425
8.21392      1554.395   67.06207
8.24415      1722.913   88.74277
8.27455      1576.864   70.18035
8.30512      1547.636   67.57897
8.33586      1446.583   58.29109
8.36676      1513.609   64.24558
8.39784      1549.928   68.10626
8.4291     2285.419   199.2024
8.46053      1406.133   54.17677
8.49213      1706.155   86.0069
8.52391      1418.07    55.77392
8.55587      1270.344   45.2796
8.58801      1423.599   55.96577
8.62034      1450.636   58.4489
8.65284      1285.47    46.2333
8.68553      1208.14    40.84326
8.7184     1244.005   43.35134
8.75146      1101.925   35.52735
8.78472      1095.656   35.01373
8.81816      1051.908   32.8457
8.85179      1053.601   33.46992
8.88561      1069.081   33.45911
8.91963      1088.875   33.92044
8.95384      982.7252   29.2452
8.98826      937.2149   28.10683
9.02286      909.2777   27.07468
9.05767      768.1492   22.11418
9.09269      704.564    20.44833
9.1279     651.5452   18.81575
9.16332      608.3478   17.69614
9.19895      582.2708   17.43656
9.23479      541.3602   16.43368
9.27083      483.511    15.22855
9.30709      455.6592   15.07635
9.34356      452.7783   14.74819
9.38024      439.217    14.43833
9.41714      414.3101   13.91803
9.45426      412.721    14.15909
9.4916     369.9027   13.61014
9.52916      366.179    13.51647
9.56695      320.0728   13.04177
9.60496      353.4544   12.98157
9.64319      299.7697   12.70366
9.68166      300.554    12.66258
9.72035      294.1283   12.28677
9.75928      294.5593   12.33102
9.79844      284.4456   12.39846
9.83784      307.9054   12.18285
9.87748      252.2592   11.6486
9.91736      270.4809   11.8785
9.95747      258.0418   11.853
9.99784      220.7285   11.77098
10.03845   228.1088   11.71421
10.0793    213.1134   11.49462
10.12041   228.4543   11.44949
10.16177   225.0507   11.40088
10.20338   201.6062   11.16621
10.24525   216.4722   11.2275
10.28737   208.7785   11.2004
10.32976   195.7034   11.22241
10.37241   193.847    11.14833
10.41533   183.1091   10.93715
10.45851   177.5701   10.90641
10.50196   187.9937   11.05581
10.54568   170.0774   10.7925
10.58967   177.4146   10.8807
10.63395   150.1904   10.72779
10.67849   183.1332   10.88312
10.72332   175.0892   10.8437
10.76844   169.1413   10.7499
10.81384   158.7294   10.70362
10.85952   146.3499   10.69881
10.9055    187.5342   10.82127
10.95177   154.2594   10.56848
10.99833   132.4934   10.47905
11.04519   142.9285   10.60114
11.09235   137.9733   10.58572
11.13982   158.4307   10.51097
11.18758   131.936    10.36969
11.23566   149.679    10.4541
11.28405   158.1125   10.52051
11.33275   151.4666   10.54239
11.38177   130.6969   10.52405
11.4311    131.9522   10.46279
11.48076   138.2846   10.36535
11.53074   128.9777   10.47042
11.58105   139.2955   10.30243
11.63169   133.2504   10.42996
11.68266   153.1336   10.51096
11.73397   156.9718   10.50074
11.78561   156.1894   10.40532
11.8376    171.3145   10.75194
11.88993   185.7541   10.8217
11.94261   197.6177   10.97214
11.99565   195.2497   10.96444
12.04903   187.594    10.90459
12.10277   164.3528   10.65696
12.15688   158.4865   10.41018
12.21134   131.5089   10.30986
12.26618   128.2173   10.32493
12.32138   104.1982   10.12499
12.37696   111.0237   10.05418
12.43291   107.1083   10.0636
12.48924   112.8322   9.95012
12.54596   116.6815   10.18327
12.60306   112.8805   10.12756
12.66056   103.343    9.94793
12.71845   132.5385   10.12512
12.77674   127.21     10.03317
12.83543   97.82258   9.91517
12.89452   116.5989   10.0701
12.95403   99.09756   9.9741
13.01394   83.38056   9.99136
13.07428   103.4738   10.05278
13.13503   100.7079   9.97022
13.19621   106.1644   9.95643
13.25782   110.6839   9.93392
13.31986   101.3112   9.96522
13.38233   93.95496   9.96276
13.44525   89.73851   9.87662
13.50861   126.1817   9.88414
13.57242   106.2778   9.81022
13.63668   94.45581   10.0131
13.7014    99.14757   9.99129
13.76659   89.07124   9.90199
13.83223   90.44366   9.84633
13.89835   97.56947   9.79517
13.96495   117.7617   9.90045
14.03202   105.9326   9.91167
14.09958   109.1823   9.81965
14.16763   88.06473   9.84459
14.23617   97.0219    9.96859
14.30521   119.6112   9.96909
14.37476   128.7179   10.32131
14.44481   125.4      10.1033
14.51538   121.2638   10.01655
14.58646   168.3888   10.42106
14.65807   166.8454   10.44598
14.7302    206.8757   10.84889
14.80287   280.3879   11.69063
14.87608   289.8497   11.72525
14.94983   264.4492   11.31424
15.02414   177.2955   10.63914
15.099     145.276    10.0664
15.17442   119.3831   9.95322
15.2504    99.04086   9.79405
15.32696   96.05265   9.80832
15.4041    99.21329   9.90092
15.48182   94.2014    9.68973
15.56013   115.1101   9.66836
15.63903   101.2659   9.80362
15.71854   95.21497   9.77145
15.79865   99.4189    9.69785
15.87938   111.0579   9.73363
15.96073   112.7378   9.76147
16.04271   106.4333   9.71603
16.12531   92.3826    9.59336
16.20856   99.17622   9.80787
16.29246   104.7009   9.60325
16.37701   113.6625   9.88801
16.46222   115.9911   9.79928
16.54809   125.406    9.87995
16.63464   108.54     9.93059
16.72187   118.9215   9.97512
16.80978   154.124    10.05257
16.8984    143.367    10.05649
16.98771   166.4955   10.36706
17.07774   212.6354   10.59543
17.16848   199.4829   10.53548
17.25995   186.7169   10.46598
17.35215   183.4899   10.34503
17.44509   175.8004   10.32858
17.53878   189.6812   10.23372
17.63322   216.0568   10.58763
17.72844   236.7421   10.92035
17.82442   337.4034   11.95243
17.92119   384.6206   12.6072
18.01874   463.932    13.98305
18.1171    602.7461   16.48904
18.21626   614.0658   16.77907
18.31624   599.7076   15.92055
18.41705   474.6678   14.08084
18.51869   399.3695   12.75161
18.62117   292.3089   11.45686
18.7245    224.2773   10.67803
18.8287    174.1893   10.21596
18.93377   144.5804   9.90338
19.03973   123.0726   9.82778
19.14657   124.2362   9.68077
19.25432   143.8009   9.80862
19.36298   134.9288   9.77427
19.47256   123.2643   9.75868
19.58307   150.9971   9.86978
19.69453   147.275    9.7441
19.80694   138.8313   9.85227
19.92031   177.1896   10.21668
20.03467   206.0712   10.39522
20.15001   265.785    10.96858
20.26635   347.7237   12.03949
20.3837    452.6368   13.21775
20.50207   445.6346   13.5194
20.62148   389.0437   12.66768
20.74193   307.3959   11.61295
20.86344   197.1189   10.38568
20.98602   137.8591   9.8011
21.10969   130.2764   9.64
21.23445   98.50446   9.53456
21.36032   102.1474   9.3804
21.48731   75.41878   9.30836
21.61544   105.9004   9.3204
21.74472   92.46568   9.23623
21.87516   86.06966   9.25896
22.00678   97.40958   9.3248
22.13959   69.77635   9.23175
22.27361   77.69086   9.22773
22.40884   82.4708    9.21471
22.54532   93.31596   9.22403
22.68304   93.10054   9.19479
22.82203   93.36533   9.22653
22.9623    81.44483   9.21867
23.10387   100.6956   9.27101
23.24675   105.4195   9.28198
23.39096   103.2926   9.34134
23.53651   94.73358   9.16864
23.68343   90.27554   9.14198
23.83173   79.33163   9.17329
23.98143   89.57286   9.14883
24.13254   93.81402   9.11702
24.28508   99.2121    9.29316
24.43908   103.8763   9.24461
24.59454   127.5757   9.41943
24.7515    144.6422   9.61594
24.90996   168.856    9.72937
25.06994   204.4562   10.14487
25.23148   253.7762   10.60114
25.39458   146.2825   9.77703
25.55926   142.5196   9.35864
25.72555   118.2203   9.36755
25.89347   125.3788   9.41001
26.06304   106.9422   9.24732
26.23429   114.2368   9.232
26.40722   93.05624   9.00397
26.58187   96.08406   9.19398
26.75826   119.8316   9.26625
26.93641   159.7069   9.54463
27.11635   138.0543   9.50437
27.29809   112.232    9.20248
27.48167   99.46917   9.10051
27.6671    96.35502   9.02981
27.85442   110.8206   9.14737
28.04365   93.9369    8.93486
28.23481   90.6794    8.95386
28.42794   88.8864    9.08203
28.62305   102.075    8.97587
28.82018   103.6066   9.12916
29.01935   115.9459   9.20946
29.22059   128.5375   9.33114
29.42394   176.2152   9.57001
29.62941   231.1851   10.11646
29.83704   202.3948   9.6955
30.04687   153.8165   9.3508
30.25891   152.3894   9.39622
30.47321   166.6584   9.52196
30.68979   173.5551   9.66275
30.90869   165.4021   9.50888
31.12994   132.9636   9.29646
31.35357   157.0739   9.29556
31.57963   198.0554   9.867
31.80813   268.4137   10.3553
32.03913   285.9019   10.66916
32.27265   185.3291   9.65166
32.50873   111.3565   9.20553
32.74741   96.99171   8.82964
32.98874   95.83244   8.87446
33.23273   107.6064   8.79065
33.47945   117.8872   8.93247
33.72892   125.5619   9.16402
33.9812    99.70359   8.98726
34.23631   98.74229   8.80373
34.49431   65.15637   8.63565
34.75523   67.97861   8.67869
35.01913   77.40868   8.64089
35.28604   96.35416   8.69864
35.55602   99.60625   8.74888
35.8291    74.50878   8.66641
36.10535   77.50428   8.80937
36.3848    76.60235   8.72519
36.66751   82.37267   8.72998
36.95353   94.56346   8.77732
37.2429    102.7483   8.74925
37.53569   103.027    8.78525
37.83195   112.7789   8.8515
38.13173   118.04     8.91235
38.43508   140.88     9.03879
38.74207   180.5597   9.2695
39.05275   277.8202   10.28432
39.36718   356.3978   11.34446
39.68542   358.3769   11.08686
40.00755   251.4851   10.08342
40.33361   188.7557   9.34887
40.66367   188.8518   9.44076
40.9978    175.7369   9.35568
41.33606   160.2119   9.21594
41.67853   119.8683   8.86824
42.02527   100.0732   8.69259
42.37635   85.82383   8.63343
42.73186   119.8177   8.82043
43.09186   136.5494   8.95463
43.45642   168.3109   9.28383
43.82563   242.5476   9.92358
44.19957   224.0896   9.77605
44.57832   159.0825   9.19146
44.96195   113.2913   8.92635
45.35056   95.24729   8.57402
45.74422   98.9867    8.61089
46.14304   96.80264   8.64561
46.54709   91.04733   8.61877
46.95647   121.7315   8.72726
47.37128   150.7926   8.89547
47.79161   156.4963   8.96342
48.21756   126.4278   8.7108
48.64922   146.3778   8.89366
49.08672   164.7241   8.90617
49.53013   141.6079   8.73896
49.97959   102.5159   8.67358
50.43519   132.1714   8.73644
50.89705   166.8707   8.95332
51.36528   178.0671   9.00842
51.84      117.5603   8.55484
52.32133   73.23347   8.37137
52.8094    67.98287   8.30327
53.30434   81.98182   8.3343
53.80626   68.09408   8.17757
54.3153    76.52847   8.29208
54.8316    98.69608   8.39461
55.3553    103.6169   8.36766
55.88654   124.3838   8.59243
56.42546   147.459    8.82675
56.97222   208.0786   9.16997
57.52696   199.4646   9.08136
58.08984   156.7228   8.77064
58.66103   164.6944   8.89012
59.24068   177.3315   9.02881
59.82896   142.4495   8.51046
60.42605   114.2906   8.48022
61.03213   140.3971   8.52654
61.64737   159.7523   8.78768
62.27196   117.3328   8.40007
62.90609   112.7257   8.20585
63.54995   131.5741   8.4563
64.20375   175.3809   8.74794
64.8677    129.5664   8.41138
65.54199   84.61111   8.17634
66.22686   73.63424   8.12588
66.92252   99.55956   8.16929
67.62919   122.833    8.39381
68.34711   113.9128   8.28288
69.07653   116.0219   8.33672
69.8177    189.7291   8.80283
70.57085   166.5179   8.67553
71.33625   155.9545   8.40785
72.11417   166.2771   8.81686
72.90489   162.0639   8.63599
73.70869   136.8778   8.39442
74.52586   137.2259   8.34725
75.35668   117.4657   8.20754
76.20148   96.95647   8.02756
77.06057   97.5621    7.9879
77.93427   104.5718   8.07718
78.8229    97.2302    7.97774
ENDDATA           3453
ENDSUBENT         3461
ENDENTRY             2
