ENTRY            F0735   20070130   20070320   20070315       F026
SUBENT        F0735001   20070130   20070320   20070315       F026
BIB                 11         18
TITLE      Nuclear level densities near Z=50 from neutron
           evaporation spectra in the (p,n)- reaction.
AUTHOR     (B.V.Zhuravlev,A.A.Lychagin,N.N.Titarenko)
INSTITUTE  (4RUSFEI)
REFERENCE  (J,YF,69,387,2006)
           (J,PAN,69,363,2006)
FACILITY   (VDGT)The pulsed tandem accelerator EGP-15 of IPPE.
DETECTOR   (SCIN)Neutrons were detected by scintillation detector
           with a stilbene crystal (d=40 mm, h=40 mm) and by
           photomultiplier.
SAMPLE     The target was self-supporting metallic foil (4.98 mg/
           cm2 thickness) with  98.7% enrichment of 118Sn.
METHOD     (TOF)
ERR-ANALYS (E-ERR-DIG)Digitizing error
           (ERR-DIG)Digitizing error
           (DATA-ERR)Error from the graphic bars
STATUS     (APRVD) Entry was approved by authors.
HISTORY    (20061127C)
ENDBIB              18
COMMON               2          3
E-ERR-DIG  ERR-DIG
MEV        PER-CENT
 0.0108     0.2
ENDCOMMON            3
ENDSUBENT           25
SUBENT        F0735002   20070130   20070320   20070315       F026
BIB                  2          2
REACTION   (50-SN-118(P,N)51-SB-118,,DE)
STATUS     (CURVE)Fig.1
ENDBIB               2
NOCOMMON             0          0
DATA                 4        317
EN         E          DATA       DATA-ERR
MEV        MEV        MU-B/MEV   MU-B/MEV
 6.8600    0.48828     87.554
 6.8600    0.58458     82.736
 6.8600    0.68601     81.086
 6.8600    0.78244     83.954
 6.8600    0.88405     93.507
 6.8600    0.97554     106.09
 6.8600     1.0872     107.82
 6.8600     1.1731     86.453
 6.8600     1.2690     63.255
 6.8600     1.3799     37.158
 6.8600     1.4705     23.067
 6.8600     1.5770     22.605
 6.8600     1.6783     20.219
 6.8600     1.7746     19.107
 6.8600     1.8754     12.527
 6.8600     1.9621     16.451
 6.8600     2.0687     18.321
 6.8600     2.1646     12.460
 6.8600     2.2606     9.6304
 6.8600     2.3614     6.0874
 8.0300    0.51179     203.43
 8.0300    0.60312     206.93
 8.0300    0.70449     192.00
 8.0300    0.81093     178.15
 8.0300    0.90720     159.36
 8.0300     1.0086     147.87
 8.0300     1.0896     127.53
 8.0300     1.2061     114.05
 8.0300     1.2973     98.350
 8.0300     1.4036     84.795
 8.0300     1.4948     73.123
 8.0300     1.6010     57.519
 8.0300     1.7023     47.808
 8.0300     1.7986     42.765
 8.0300     1.8949     41.930
 8.0300     1.9964     43.434
 8.0300     2.0979     44.993
 8.0300     2.1993     42.521
 8.0300     2.3006     35.997
 8.0300     2.4017     25.835
 8.0300     2.4976     16.610
 8.0300     2.5934     10.107
 8.0300     2.6947     9.0404
 8.0300     2.7962     8.7021
 8.0300     2.9026     8.2235
 8.0300     2.9936     6.2369
 8.0300     3.0951     6.1146
 8.0300     3.1864     6.5717
 8.0300     3.2927     4.9830
 8.0300     3.3888     3.7789
 8.0300     3.4848     2.8658
 8.0300     3.5952    0.95161
 8.6500    0.50191     236.66
 8.6500    0.60839     227.77
 8.6500    0.70465     207.56
 8.6500    0.80611     207.22
 8.6500    0.90244     199.47
 8.6500     1.0038     185.11
 8.6500     1.1051     165.61
 8.6500     1.2065     150.91
 8.6500     1.2976     135.04
 8.6500     1.4040     118.62
 8.6500     1.5104     106.12
 8.6500     1.6066     93.231
 8.6500     1.6927     83.433
 8.6500     1.8041     70.653
 8.6500     1.9053     58.757
 8.6500     2.0066     50.683
 8.6500     2.0977     43.725
 8.6500     2.2040     35.055
 8.6500     2.3052     29.153
 8.6500     2.4014     25.149
 8.6500     2.5129     24.203
 8.6500     2.6093     24.165
 8.6500     2.6955     23.694
 8.6500     2.7970     23.227
 8.6500     2.9084     20.032
 8.6500     2.9994     15.488
 8.6500     3.1005     11.972
 8.6500     3.2065     7.7082
 8.6500     3.2975     5.8516
 8.6500     3.4039     5.5299
 8.6500     3.4951     5.1326
 8.6500     3.6066     4.6760
 8.6500     3.7129     3.8883
 8.6500     3.8041     3.6089
 8.6500     3.9106     3.4106
 8.6500     4.0067     2.7347
 8.6500     4.1078     2.0757
 8.6500     4.2035     1.2424
 8.6500     4.3042    0.63086
 8.6500     4.4045    0.25725    0.14106
 9.0900    0.49702     260.69
 9.0900    0.59849     265.04
 9.0900    0.70493     246.00
 9.0900    0.80126     236.84
 9.0900    0.89247     219.88
 9.0900     1.0040     211.64
 9.0900     1.0952     189.46
 9.0900     1.1915     179.11
 9.0900     1.2979     163.25
 9.0900     1.3942     146.13
 9.0900     1.5006     135.63
 9.0900     1.6019     123.63
 9.0900     1.6981     104.78
 9.0900     1.7994     88.804
 9.0900     1.8955     76.650
 9.0900     2.0070     68.595
 9.0900     2.1083     59.202
 9.0900     2.1893     51.112
 9.0900     2.2956     42.533
 9.0900     2.3917     36.712
 9.0900     2.4930     32.266
 9.0900     2.5993     26.850
 9.0900     2.6955     22.757
 9.0900     2.8018     18.937
 9.0900     2.8980     16.952
 9.0900     2.9944     16.026
 9.0900     3.1009     16.292
 9.0900     3.2074     16.264
 9.0900     3.2936     15.100
 9.0900     3.4049     12.338
 9.0900     3.4959     9.3762
 9.0900     3.5970     7.1242
 9.0900     3.6980     4.9422
 9.0900     3.8044     4.4232
 9.0900     3.9058     4.3363
 9.0900     4.0021     4.1747
 9.0900     4.1032     3.0586
 9.0900     4.2047     3.0536
 9.0900     4.3010     2.9398
 9.0900     4.4021     2.3165
 9.0900     4.5033     1.8589
 9.0900     4.5993     1.3871    0.14132
 9.0900     4.6950    0.80217    0.15206
 10.170    0.48296     296.33
 10.170    0.58446     306.81
 10.170    0.69093     295.17
 10.170    0.78734     300.08
 10.170    0.89381     288.69
 10.170    0.99006     262.91
 10.170     1.0864     257.66
 10.170     1.1877     230.36
 10.170     1.2890     213.65
 10.170     1.3853     198.17
 10.170     1.4816     180.47
 10.170     1.5829     167.38
 10.170     1.6842     146.93
 10.170     1.7804     131.37
 10.170     1.8918     117.43
 10.170     1.9830     105.01
 10.170     2.0894     97.384
 10.170     2.1805     83.946
 10.170     2.2768     76.449
 10.170     2.3882     70.890
 10.170     2.4895     61.096
 10.170     2.5908     54.623
 10.170     2.6921     48.836
 10.170     2.7882     42.093
 10.170     2.8845     37.637
 10.170     2.9907     31.265
 10.170     3.0920     28.471
 10.170     3.1781     25.461
 10.170     3.2895     21.541
 10.170     3.3857     19.260
 10.170     3.4869     16.001
 10.170     3.5933     14.570
 10.170     3.6895     13.027
 10.170     3.7906     10.433
 10.170     3.8818     9.5022
 10.170     3.9831     8.8129
 10.170     4.0794     8.3258
 10.170     4.1758     8.3106
 10.170     4.2873     7.7063
 10.170     4.3888     7.8339
 10.170     4.4749     7.0060
 10.170     4.5811     5.8200
 10.170     4.6824     5.1088
 10.170     4.7885     3.8720
 10.170     4.8848     3.5262
 10.170     4.9861     3.1526
 10.170     5.0925     2.9236
 10.170     5.1887     2.6141
 10.170     5.2850     2.5153
 10.170     5.3865     2.4649
 10.170     5.4879     2.3715
 10.170     5.5892     2.1995
 10.170     5.6904     1.8273    0.17106
 10.170     5.7863     1.2872    0.30966
 10.170     5.8923    0.90656    0.23054
 10.700    0.47840     320.63
 10.700    0.57990     331.97
 10.700    0.68135     331.37
 10.700    0.77771     324.82
 10.700    0.87913     318.36
 10.700    0.98556     295.36
 10.700     1.0819     279.13
 10.700     1.1832     263.77
 10.700     1.2795     240.32
 10.700     1.3707     218.98
 10.700     1.4872     199.45
 10.700     1.5834     172.03
 10.700     1.6747     171.75
 10.700     1.7861     148.10
 10.700     1.8772     127.75    0.97160E-01
 10.700     1.9786     125.21    0.19351
 10.700     2.0748     109.99     1.0668
 10.700     2.1761     94.861     2.8581
 10.700     2.2876     88.000
 10.700     2.3839     80.179
 10.700     2.4801     70.432
 10.700     2.5864     62.999
 10.700     2.6777     59.542
 10.700     2.7789     49.509
 10.700     2.8903     45.096
 10.700     2.9764     39.621
 10.700     3.0778     38.131
 10.700     3.1841     32.883
 10.700     3.2854     28.882
 10.700     3.3766     25.841
 10.700     3.4828     21.096
 10.700     3.5740     18.875
 10.700     3.6855     17.510
 10.700     3.7868     16.246
 10.700     3.8881     14.011
 10.700     3.9792     12.309
 10.700     4.0856     11.010
 10.700     4.1716     9.4982
 10.700     4.2779     7.8970
 10.700     4.3895     7.8814
 10.700     4.4805     6.4358
 10.700     4.5718     6.1948
 10.700     4.6834     6.0707
 10.700     4.7898     5.8418
 10.700     4.8812     6.0494
 10.700     4.9776     6.3794
 10.700     5.0790     5.8119
 10.700     5.1802     4.9217
 10.700     5.2763     3.9458
 10.700     5.3876     3.2803
 10.700     5.4737     2.9893
 10.700     5.5802     2.8245
 10.700     5.6765     2.6693
 10.700     5.7829     2.4765
 10.700     5.8742     2.3837
 10.700     5.9756     2.3795
 10.700     6.0820     2.1676
 10.700     6.1782     1.8025
 10.700     6.2792     1.3431    0.16106
 10.700     6.3749    0.80385    0.10926
 10.700     6.4756    0.46379     1.1112
 11.110    0.49084     314.75
 11.110    0.60251     331.83
 11.110    0.70396     331.23
 11.110    0.79020     330.73
 11.110    0.88653     318.32
 11.110    0.98286     306.37
 11.110     1.0944     289.46
 11.110     1.1856     268.62
 11.110     1.2920     253.81
 11.110     1.3832     231.28
 11.110     1.4947     210.67
 11.110     1.6011     188.44
 11.110     1.6923     174.87
 11.110     1.7835     159.34
 11.110     1.8949     142.52
 11.110     1.9962     127.49
 11.110     2.0874     120.49
 11.110     2.1887     105.84
 11.110     2.2952     101.85
 11.110     2.3863     87.853
 11.110     2.4876     77.166
 11.110     2.5889     71.598
 11.110     2.6902     62.889
 11.110     2.8017     56.247
 11.110     2.8878     51.258
 11.110     2.9840     45.857
 11.110     3.0802     40.282
 11.110     3.1866     36.696
 11.110     3.2829     33.435
 11.110     3.3841     29.368
 11.110     3.4956     25.791
 11.110     3.5969     23.497
 11.110     3.6931     20.640
 11.110     3.7893     18.131
 11.110     3.8856     16.520
 11.110     3.9869     14.778
 11.110     4.0882     13.463
 11.110     4.1793     12.046
 11.110     4.2807     10.974
 11.110     4.3871     10.182
 11.110     4.4885     9.4470
 11.110     4.5898     8.4508
 11.110     4.6809     7.2897
 11.110     4.7974     6.4013
 11.110     4.8886     5.9405
 11.110     4.9849     5.6140
 11.110     5.0913     5.3045
 11.110     5.1927     5.1050
 11.110     5.2891     5.0963
 11.110     5.3957     5.3733
 11.110     5.4768     5.1731
 11.110     5.5781     4.7129
 11.110     5.6945     3.7772
 11.110     5.7856     3.2582
 11.110     5.8870     3.0231
 11.110     5.9883     2.7542
 11.110     6.0897     2.5555
 11.110     6.1960     2.2858
 11.110     6.2823     2.2823
 11.110     6.3837     2.1965
 11.110     6.4849     1.9293
 11.110     6.5811     1.6641
 11.110     6.6924     1.2859    0.90529E-01
 11.110     6.7883    0.94095    0.97784E-01
 11.110     6.8892    0.60580    0.52796E-01
 11.110     6.9847    0.32492    0.68746E-01
ENDDATA            319
ENDSUBENT          326
ENDENTRY             2
