ENTRY            F0754   20060403   20060814   20060808       F024
SUBENT        F0754001   20060403   20060814   20060808       F024
BIB                 10         20
TITLE      Alpha-cluster states in 18O.
AUTHOR     (V.Z.Goldberg,K.M.Kallman,T.Lonnroth,P.Manngard,
           B.B.Skorodumov)
INSTITUTE  (1USATAM,4RUSKUR,2SF ABA,2SF SF,1USANOT)
REFERENCE  (J,YF,68,1123,2005)
FACILITY   (ISOCY,2SF ABA)
DETECTOR   The measurements of continuous excitation functions
           were made with 4 movable detectors set in thirteen
           laboratory angles, at 170, and 160-124 degr. in steps
           of 3 and 4 degr., and using a fixed monitor at -20
           degr.
METHOD     (TTM)The authors used thick-target method which was
           based on the ideas of backscattering element analysis.
SAMPLE     The 14C targets, enriched to 71% in 14C, were thick
           enough only to degrade the beam energy by 100 keV
           when tilted by 45 degr. with respect to the beam
           direction.
ERR-ANALYS Absolute values of cross section were obtained with
           about 10% precision.
HISTORY    (20060116C)
ENDBIB              20
NOCOMMON             0          0
ENDSUBENT           23
SUBENT        F0754002   20060403   20060814   20060808       F024
BIB                  3          4
REACTION   (6-C-14(A,EL)6-C-14,,DA)
ERR-ANALYS (EN-ERR-DIG)Digitizing error
           (ERR-DIG)Digitizing error
STATUS     (CURVE)Fig.1
ENDBIB               4
COMMON               2          3
EN-ERR-DIG ERR-DIG
MEV        MB/SR
 0.01       0.1
ENDCOMMON            3
DATA                 3       1174
ANG        EN         DATA
ADEG       MEV        MB/SR
 100.00     16.361    0.24209
 100.00     16.366    0.23973
 100.00     16.373    0.96247
 100.00     16.381     1.8057
 100.00     16.388     2.7693
 100.00     16.393     3.6126
 100.00     16.407     3.9737
 100.00     16.414     3.8531
 100.00     16.423     3.3710
 100.00     16.434     2.5274
 100.00     16.444     3.6115
 100.00     16.449     4.6957
 100.00     16.463     4.6954
 100.00     16.476     4.3337
 100.00     16.490     3.7309
 100.00     16.503     2.7668
 100.00     16.516     1.5617
 100.00     16.536     1.0793
 100.00     16.553     2.6452
 100.00     16.562     3.0064
 100.00     16.573     3.6086
 100.00     16.585     4.2107
 100.00     16.596     4.5719
 100.00     16.606     4.9332
 100.00     16.616     5.0534
 100.00     16.632     5.2940
 100.00     16.639     5.2939
 100.00     16.649     5.7756
 100.00     16.660     6.7392
 100.00     16.669     6.7390
 100.00     16.677     7.3412
 100.00     16.690     7.5819
 100.00     16.697     7.8227
 100.00     16.712     7.9428
 100.00     16.722     7.9426
 100.00     16.732     7.9424
 100.00     16.742     8.0627
 100.00     16.753     7.9419
 100.00     16.766     6.9778
 100.00     16.780     6.6160
 100.00     16.790     7.0977
 100.00     16.803     6.6155
 100.00     16.812     6.7358
 100.00     16.822     6.7356
 100.00     16.831     6.6149
 100.00     16.842     6.6146
 100.00     16.863     6.2527
 100.00     16.875     8.4211
 100.00     16.886     9.0233
 100.00     16.894     10.228
 100.00     16.906     11.312
 100.00     16.918     12.396
 100.00     16.928     13.480
 100.00     16.940     14.444
 100.00     16.947     16.251
 100.00     16.950     17.335
 100.00     16.960     18.178
 100.00     16.965     19.262
 100.00     16.970     20.949
 100.00     16.981     22.033
 100.00     16.996     21.551
 100.00     17.005     21.912
 100.00     17.014     22.514
 100.00     17.023     22.996
 100.00     17.033     23.237
 100.00     17.041     23.719
 100.00     17.054     24.441
 100.00     17.069     24.320
 100.00     17.079     23.236
 100.00     17.088     22.031
 100.00     17.096     20.946
 100.00     17.110     19.741
 100.00     17.125     18.416
 100.00     17.138     17.331
 100.00     17.151     16.126
 100.00     17.172     14.920
 100.00     17.189     14.318
 100.00     17.204     13.956
 100.00     17.217     13.594
 100.00     17.227     13.353
 100.00     17.237     12.991
 100.00     17.256     13.352
 100.00     17.270     12.388
 100.00     17.280     12.267
 100.00     17.289     12.749
 100.00     17.303     12.267
 100.00     17.315     11.785
 100.00     17.328     11.182
 100.00     17.340     10.700
 100.00     17.352     10.218
 100.00     17.366     10.217
 100.00     17.377     9.0123
 100.00     17.386     8.2892
 100.00     17.394     7.8071
 100.00     17.406     6.9635
 100.00     17.419     5.9993
 100.00     17.437     5.1555
 100.00     17.457     4.4322
 100.00     17.469     4.4319
 100.00     17.484     4.0701
 100.00     17.495     3.9494
 100.00     17.506     4.1901
 100.00     17.521     4.4308
 100.00     17.540     4.9123
 100.00     17.555     4.7915
 100.00     17.567     5.3936
 100.00     17.582     5.3932
 100.00     17.600     5.1519
 100.00     17.613     5.0311
 100.00     17.627     4.6694
 114.00     16.378    0.11715
 114.00     16.386    0.36529
 114.00     16.395    0.96826
 114.00     16.408     1.2100
 114.00     16.422     1.3314
 114.00     16.434     1.3322
 114.00     16.448     1.0921
 114.00     16.465     1.2137
 114.00     16.481     2.2990
 114.00     16.497     2.3000
 114.00     16.515     2.4217
 114.00     16.529     2.1816
 114.00     16.544     2.1825
 114.00     16.558     1.8220
 114.00     16.574     2.7869
 114.00     16.584     3.0285
 114.00     16.596     3.2702
 114.00     16.606     3.5118
 114.00     16.616     3.8739
 114.00     16.628     3.9951
 114.00     16.644     4.1166
 114.00     16.659     4.1175
 114.00     16.675     4.4800
 114.00     16.684     5.9264
 114.00     16.697     5.4453
 114.00     16.713     6.1692
 114.00     16.723     6.2903
 114.00     16.736     6.0502
 114.00     16.753     5.6898
 114.00     16.767     5.4497
 114.00     16.784     5.3303
 114.00     16.794     5.2105
 114.00     16.806     5.0908
 114.00     16.819     4.6097
 114.00     16.829     4.6103
 114.00     16.843     4.2497
 114.00     16.857     4.2506
 114.00     16.873     4.0107
 114.00     16.884     4.0113
 114.00     16.901     5.3377
 114.00     16.916     6.7845
 114.00     16.927     7.7491
 114.00     16.940     8.8342
 114.00     16.949     9.7986
 114.00     16.959     10.522
 114.00     16.969     11.125
 114.00     16.977     12.210
 114.00     16.980     13.536
 114.00     16.986     14.379
 114.00     16.993     15.464
 114.00     17.000     16.910
 114.00     17.009     17.272
 114.00     17.015     18.839
 114.00     17.024     19.201
 114.00     17.031     19.442
 114.00     17.040     19.804
 114.00     17.051     20.408
 114.00     17.064     20.890
 114.00     17.073     20.891
 114.00     17.080     22.096
 114.00     17.091     22.097
 114.00     17.107     22.339
 114.00     17.114     20.171
 114.00     17.121     18.966
 114.00     17.127     18.123
 114.00     17.136     17.160
 114.00     17.146     15.956
 114.00     17.155     14.752
 114.00     17.164     13.668
 114.00     17.175     13.186
 114.00     17.186     13.308
 114.00     17.199     12.104
 114.00     17.212     12.104
 114.00     17.225     11.623
 114.00     17.237     11.383
 114.00     17.250     11.143
 114.00     17.263     10.782
 114.00     17.275     10.542
 114.00     17.289     9.9407
 114.00     17.305     11.267
 114.00     17.322     9.8223
 114.00     17.341     9.5825
 114.00     17.351     9.4628
 114.00     17.364     9.4636
 114.00     17.375     9.8257
 114.00     17.391     9.8267
 114.00     17.404     8.9842
 114.00     17.413     8.6233
 114.00     17.427     7.6603
 114.00     17.437     6.8176
 114.00     17.447     6.2158
 114.00     17.456     5.4935
 114.00     17.465     4.7712
 114.00     17.476     4.2900
 114.00     17.488     3.8088
 114.00     17.500     2.9662
 114.00     17.513     2.4850
 114.00     17.525     2.0039
 114.00     17.538     1.2818
 114.00     17.557     1.1625
 114.00     17.571     1.2839
 114.00     17.587     1.1645
 114.00     17.600    0.92432
 114.00     17.616    0.56388
 114.00     17.630    0.56476
 114.00     17.642    0.56552
 114.00     17.656     1.1688
 120.00     16.364    0.11738
 120.00     16.375    0.11712
 120.00     16.390    0.23545
 120.00     16.402    0.35383
 120.00     16.421    0.35337
 120.00     16.435    0.59043
 120.00     16.448    0.70881
 120.00     16.461    0.94587
 120.00     16.483    0.82665
 120.00     16.516    0.82586
 120.00     16.531    0.94417
 120.00     16.568    0.82459
 120.00     16.586    0.94283
 120.00     16.600    0.70510
 120.00     16.623    0.58585
 120.00     16.654    0.58508
 120.00     16.669    0.94081
 120.00     16.678    0.70321
 120.00     16.699    0.94009
 120.00     16.717    0.82094
 120.00     16.730    0.82063
 120.00     16.745    0.70158
 120.00     16.760    0.93861
 120.00     16.770    0.93834
 120.00     16.786    0.81926
 120.00     16.803    0.70016
 120.00     16.822    0.81840
 120.00     16.831    0.69947
 120.00     16.863    0.46131
 120.00     16.876    0.81708
 120.00     16.890    0.57936
 120.00     16.904    0.81639
 120.00     16.925    0.81589
 120.00     16.947     2.0023
 120.00     16.961     2.8328
 120.00     16.974     2.9512
 120.00     16.986     3.7818
 120.00     16.998     3.7815
 120.00     17.010     4.0186
 120.00     17.019     4.6118
 120.00     17.033     4.7302
 120.00     17.047     5.7981
 120.00     17.058     6.3913
 120.00     17.071     7.6966
 120.00     17.088     7.8149
 120.00     17.102     7.4585
 120.00     17.111     6.9835
 120.00     17.121     6.8645
 120.00     17.133     6.5082
 120.00     17.143     6.0331
 120.00     17.153     5.5581
 120.00     17.161     4.9644
 120.00     17.171     4.1333
 120.00     17.184     4.8452
 120.00     17.197     4.8449
 120.00     17.207     4.7259
 120.00     17.218     4.7257
 120.00     17.230     4.6067
 120.00     17.246     4.4876
 120.00     17.256     4.4874
 120.00     17.269     4.6057
 120.00     17.284     4.8428
 120.00     17.302     5.0797
 120.00     17.322     5.1979
 120.00     17.340     5.3162
 120.00     17.355     6.1467
 120.00     17.365     5.7903
 120.00     17.378     5.9087
 120.00     17.391     6.1458
 120.00     17.404     6.0268
 120.00     17.415     6.2639
 120.00     17.426     6.3823
 120.00     17.437     6.3821
 120.00     17.447     6.3818
 120.00     17.459     6.1441
 120.00     17.467     6.2626
 120.00     17.480     6.1436
 120.00     17.491     5.9060
 120.00     17.501     5.5496
 120.00     17.512     5.4307
 120.00     17.523     5.0743
 120.00     17.537     4.9553
 120.00     17.549     4.7176
 120.00     17.560     4.3613
 120.00     17.572     3.8862
 120.00     17.581     3.6486
 120.00     17.591     3.2922
 120.00     17.601     2.6985
 120.00     17.614     2.3421
 120.00     17.628     2.1044
 124.00     16.381    0.11753E-02
 124.00     16.389    0.36062
 124.00     16.404    0.83998
 124.00     16.422    0.84036
 124.00     16.437     1.0802
 124.00     16.455    0.72132
 124.00     16.470    0.96115
 124.00     16.480    0.96136
 124.00     16.491    0.96159
 124.00     16.508    0.60267
 124.00     16.518    0.48312
 124.00     16.529    0.36359
 124.00     16.540    0.24406
 124.00     16.550    0.12451
 124.00     16.563    0.50421E-02
 124.00     16.573    0.11451
 124.00     16.582    0.23408
 124.00     16.592    0.56487E-02
 124.00     16.604    0.12567
 124.00     16.614    0.12587
 124.00     16.624    0.11344
 124.00     16.634    0.12629
 124.00     16.646    0.24630
 124.00     16.658    0.24656
 124.00     16.668    0.36653
 124.00     16.686    0.48669
 124.00     16.699    0.24744
 124.00     16.710    0.12791
 124.00     16.720    0.24788
 124.00     16.730    0.24809
 124.00     16.749    0.36825
 124.00     16.769    0.36867
 124.00     16.784    0.36899
 124.00     16.795    0.36924
 124.00     16.812    0.36959
 124.00     16.821    0.60930
 124.00     16.832    0.60954
 124.00     16.843    0.60977
 124.00     16.859    0.61010
 124.00     16.870    0.61034
 124.00     16.884    0.49087
 124.00     16.892    0.37127
 124.00     16.903    0.25177
 124.00     16.917    0.49158
 124.00     16.932    0.49190
 124.00     16.940    0.49207
 124.00     16.953    0.37258
 124.00     16.969    0.13339
 124.00     16.986    0.13375
 124.00     16.999    0.13402
 124.00     17.006    0.37369
 124.00     17.015    0.13438
 124.00     17.028    0.25442
 124.00     17.037    0.13485
 124.00     17.049    0.25485
 124.00     17.062    0.61441
 124.00     17.073     1.0937
 124.00     17.084     1.5730
 124.00     17.100     2.1721
 124.00     17.110     3.1304
 124.00     17.120     3.3701
 124.00     17.129     3.3703
 124.00     17.139     3.6101
 124.00     17.150     3.6103
 124.00     17.160     3.9698
 124.00     17.175     3.9701
 124.00     17.187     4.4494
 124.00     17.203     3.8509
 124.00     17.214     4.3302
 124.00     17.226     4.3305
 124.00     17.237     4.3307
 124.00     17.252     4.2113
 124.00     17.264     3.9720
 124.00     17.274     4.0920
 124.00     17.283     3.8526
 124.00     17.294     4.0924
 124.00     17.303     4.0926
 124.00     17.315     4.4521
 124.00     17.329     4.4524
 124.00     17.339     4.5724
 124.00     17.352     4.6924
 124.00     17.373     4.8126
 124.00     17.386     5.4117
 124.00     17.394     6.2502
 124.00     17.409     6.6098
 124.00     17.422     6.8496
 124.00     17.431     6.9695
 124.00     17.444     7.2093
 124.00     17.452     7.2095
 124.00     17.465     7.4493
 124.00     17.477     8.0484
 124.00     17.485     8.4078
 124.00     17.498     8.6476
 124.00     17.513     9.0072
 124.00     17.527     9.1273
 124.00     17.536     9.3670
 124.00     17.545     9.4869
 124.00     17.555     9.7266
 124.00     17.564     10.086
 124.00     17.572     11.044
 124.00     17.582     9.9668
 124.00     17.593     10.087
 124.00     17.604     10.446
 124.00     17.617     10.087
 124.00     17.627     9.7282
 124.00     17.635     9.4888
 124.00     17.644     9.3693
 124.00     17.652     8.8904
 124.00     17.659     8.6510
 140.00     16.365     2.2959
 140.00     16.370     3.3835
 140.00     16.374     4.9545
 140.00     16.380     7.2506
 140.00     16.384     9.4258
 140.00     16.388     11.480
 140.00     16.393     13.655
 140.00     16.401     13.897
 140.00     16.416     13.655
 140.00     16.428     13.051
 140.00     16.436     12.688
 140.00     16.443     12.930
 140.00     16.446     13.776
 140.00     16.451     16.797
 140.00     16.456     19.335
 140.00     16.467     18.972
 140.00     16.481     18.731
 140.00     16.491     18.126
 140.00     16.498     16.918
 140.00     16.511     16.555
 140.00     16.522     16.555
 140.00     16.535     16.797
 140.00     16.547     17.039
 140.00     16.557     16.918
 140.00     16.568     17.280
 140.00     16.574     18.126
 140.00     16.579     19.455
 140.00     16.589     20.301
 140.00     16.598     20.785
 140.00     16.605     21.268
 140.00     16.616     22.114
 140.00     16.626     22.839
 140.00     16.636     23.806
 140.00     16.646     24.531
 140.00     16.653     25.256
 140.00     16.659     27.189
 140.00     16.664     28.277
 140.00     16.671     29.606
 140.00     16.684     30.090
 140.00     16.695     30.331
 140.00     16.703     30.452
 140.00     16.713     30.210
 140.00     16.725     29.848
 140.00     16.736     29.969
 140.00     16.751     29.848
 140.00     16.760     29.727
 140.00     16.772     29.364
 140.00     16.782     28.156
 140.00     16.790     27.189
 140.00     16.801     26.585
 140.00     16.812     26.464
 140.00     16.821     26.222
 140.00     16.831     25.860
 140.00     16.840     25.739
 140.00     16.852     25.497
 140.00     16.864     25.255
 140.00     16.875     24.530
 140.00     16.883     25.739
 140.00     16.889     28.276
 140.00     16.895     29.485
 140.00     16.904     30.935
 140.00     16.912     32.023
 140.00     16.923     33.110
 140.00     16.933     34.198
 140.00     16.943     36.373
 140.00     16.949     40.723
 140.00     16.952     44.711
 140.00     16.956     47.974
 140.00     16.961     50.391
 140.00     16.964     51.599
 140.00     16.970     53.291
 140.00     16.974     55.225
 140.00     16.980     56.312
 140.00     16.987     57.521
 140.00     17.003     57.762
 140.00     17.017     58.246
 140.00     17.029     58.487
 140.00     17.041     58.729
 140.00     17.050     60.058
 140.00     17.053     61.992
 140.00     17.054     63.805
 140.00     17.064     65.496
 140.00     17.076     64.530
 140.00     17.080     63.079
 140.00     17.087     61.508
 140.00     17.091     60.179
 140.00     17.097     58.850
 140.00     17.103     57.158
 140.00     17.109     55.950
 140.00     17.113     54.499
 140.00     17.119     53.170
 140.00     17.125     51.599
 140.00     17.131     49.907
 140.00     17.138     48.336
 140.00     17.145     46.040
 140.00     17.155     44.348
 140.00     17.168     44.227
 140.00     17.177     43.623
 140.00     17.179     42.294
 140.00     17.196     42.052
 140.00     17.206     41.931
 140.00     17.213     42.173
 140.00     17.223     41.810
 140.00     17.235     41.810
 140.00     17.243     41.568
 140.00     17.250     41.810
 140.00     17.262     42.414
 140.00     17.268     43.260
 140.00     17.276     41.931
 140.00     17.288     41.327
 140.00     17.298     40.360
 140.00     17.307     39.514
 140.00     17.316     38.547
 140.00     17.325     37.580
 140.00     17.335     36.372
 140.00     17.347     35.405
 140.00     17.359     34.076
 140.00     17.374     34.197
 140.00     17.387     32.263
 140.00     17.395     30.450
 140.00     17.404     28.638
 140.00     17.415     26.946
 140.00     17.422     25.254
 140.00     17.430     23.683
 140.00     17.437     22.112
 140.00     17.446     20.903
 140.00     17.456     20.541
 140.00     17.467     20.903
 140.00     17.474     19.574
 140.00     17.481     18.245
 140.00     17.493     17.399
 140.00     17.504     16.915
 140.00     17.514     16.432
 140.00     17.526     15.828
 140.00     17.536     15.223
 140.00     17.547     14.619
 140.00     17.557     14.619
 140.00     17.569     13.894
 140.00     17.581     13.652
 140.00     17.593     13.531
 140.00     17.606     13.290
 140.00     17.617     13.410
 140.00     17.632     13.289
 141.00     16.381    0.24715
 141.00     16.389    0.12469
 141.00     16.398    0.49306
 141.00     16.408     1.2296
 141.00     16.416     1.7206
 141.00     16.423     2.9478
 141.00     16.431     5.6475
 141.00     16.435     9.2059
 141.00     16.440     13.132
 141.00     16.444     15.096
 141.00     16.451     16.936
 141.00     16.457     20.127
 141.00     16.466     18.900
 141.00     16.477     18.410
 141.00     16.485     18.287
 141.00     16.493     15.711
 141.00     16.511     14.852
 141.00     16.531     14.730
 141.00     16.557     15.099
 141.00     16.565     17.799
 141.00     16.578     17.799
 141.00     16.589     19.395
 141.00     16.603     21.604
 141.00     16.619     21.849
 141.00     16.631     22.954
 141.00     16.642     24.059
 141.00     16.650     25.409
 141.00     16.662     29.826
 141.00     16.672     27.863
 141.00     16.683     28.477
 141.00     16.708     30.564
 141.00     16.742     30.319
 141.00     16.763     29.216
 141.00     16.780     28.726
 141.00     16.791     26.027
 141.00     16.804     25.659
 141.00     16.816     24.923
 141.00     16.828     24.187
 141.00     16.843     24.188
 141.00     16.864     27.501
 141.00     16.871     23.820
 141.00     16.881     22.962
 141.00     16.887     22.103
 141.00     16.902     23.821
 141.00     16.911     25.417
 141.00     16.916     29.589
 141.00     16.921     33.147
 141.00     16.931     33.884
 141.00     16.937     35.356
 141.00     16.941     38.915
 141.00     16.944     41.737
 141.00     16.955     41.737
 141.00     16.958     45.909
 141.00     16.968     46.400
 141.00     16.974     47.995
 141.00     16.984     48.732
 141.00     16.993     49.714
 141.00     16.997     50.941
 141.00     17.006     52.413
 141.00     17.012     56.463
 141.00     17.027     58.549
 141.00     17.033     60.881
 141.00     17.042     62.967
 141.00     17.057     63.458
 141.00     17.074     62.968
 141.00     17.085     61.128
 141.00     17.092     59.410
 141.00     17.103     58.797
 141.00     17.116     54.503
 141.00     17.120     58.552
 141.00     17.128     55.117
 141.00     17.131     52.295
 141.00     17.141     50.700
 141.00     17.151     49.350
 141.00     17.164     47.388
 141.00     17.173     45.915
 141.00     17.181     44.075
 141.00     17.188     42.726
 141.00     17.195     41.867
 141.00     17.208     39.782
 141.00     17.229     38.555
 141.00     17.242     38.310
 141.00     17.258     37.697
 141.00     17.273     37.820
 141.00     17.283     37.943
 141.00     17.300     38.557
 141.00     17.310     39.907
 141.00     17.324     39.294
 141.00     17.332     37.086
 141.00     17.352     37.209
 141.00     17.367     36.719
 141.00     17.378     33.897
 141.00     17.383     36.597
 141.00     17.396     33.284
 141.00     17.405     31.321
 141.00     17.418     31.567
 141.00     17.428     29.604
 141.00     17.438     27.519
 141.00     17.447     25.556
 141.00     17.458     23.225
 141.00     17.471     22.489
 141.00     17.482     21.017
 141.00     17.496     19.545
 141.00     17.513     19.423
 141.00     17.529     19.178
 141.00     17.548     18.565
 141.00     17.564     19.424
 141.00     17.582     19.302
 141.00     17.595     18.076
 141.00     17.609     18.199
 141.00     17.626     17.708
 141.00     17.644     18.568
 141.00     17.654     19.427
 144.00     16.363     1.9319
 144.00     16.368     3.3819
 144.00     16.373     4.7110
 144.00     16.378     6.4027
 144.00     16.382     8.0944
 144.00     16.387     10.028
 144.00     16.393     10.753
 144.00     16.404     10.390
 144.00     16.418     10.752
 144.00     16.425     10.631
 144.00     16.435     10.389
 144.00     16.440     8.9385
 144.00     16.446     10.751
 144.00     16.450     13.289
 144.00     16.455     14.497
 144.00     16.461     15.463
 144.00     16.471     15.947
 144.00     16.482     15.342
 144.00     16.488     14.375
 144.00     16.497     14.012
 144.00     16.508     13.891
 144.00     16.519     14.012
 144.00     16.529     13.890
 144.00     16.538     13.769
 144.00     16.548     13.890
 144.00     16.560     14.131
 144.00     16.569     15.097
 144.00     16.580     16.306
 144.00     16.589     16.668
 144.00     16.604     16.909
 144.00     16.615     17.271
 144.00     16.624     17.392
 144.00     16.633     17.875
 144.00     16.643     17.995
 144.00     16.650     18.479
 144.00     16.653     19.566
 144.00     16.659     21.983
 144.00     16.664     23.070
 144.00     16.671     23.795
 144.00     16.680     24.399
 144.00     16.690     24.278
 144.00     16.704     24.640
 144.00     16.718     24.519
 144.00     16.730     24.760
 144.00     16.738     24.760
 144.00     16.753     24.759
 144.00     16.765     24.638
 144.00     16.774     24.638
 144.00     16.785     24.033
 144.00     16.793     23.912
 144.00     16.800     23.670
 144.00     16.813     23.307
 144.00     16.827     22.823
 144.00     16.843     22.340
 144.00     16.855     21.977
 144.00     16.864     21.735
 144.00     16.873     21.855
 144.00     16.879     22.701
 144.00     16.886     23.909
 144.00     16.897     24.996
 144.00     16.912     26.325
 144.00     16.927     27.412
 144.00     16.938     28.258
 144.00     16.942     31.400
 144.00     16.947     36.596
 144.00     16.951     40.342
 144.00     16.956     43.967
 144.00     16.961     45.659
 144.00     16.968     45.780
 144.00     16.972     47.350
 144.00     16.976     50.130
 144.00     16.987     50.250
 144.00     16.995     51.458
 144.00     17.004     52.667
 144.00     17.012     53.996
 144.00     17.019     55.204
 144.00     17.028     56.533
 144.00     17.037     57.862
 144.00     17.046     58.949
 144.00     17.055     59.916
 144.00     17.063     60.278
 144.00     17.073     61.124
 144.00     17.085     60.157
 144.00     17.091     58.706
 144.00     17.096     56.772
 144.00     17.105     54.476
 144.00     17.111     52.422
 144.00     17.117     50.488
 144.00     17.124     48.796
 144.00     17.129     47.104
 144.00     17.132     45.895
 144.00     17.138     44.324
 144.00     17.144     42.511
 144.00     17.149     41.182
 144.00     17.156     40.215
 144.00     17.165     39.489
 144.00     17.175     38.885
 144.00     17.186     38.159
 144.00     17.194     37.917
 144.00     17.202     37.675
 144.00     17.211     37.192
 144.00     17.222     37.071
 144.00     17.232     36.587
 144.00     17.244     35.982
 144.00     17.257     35.498
 144.00     17.270     35.619
 144.00     17.279     36.827
 144.00     17.292     36.706
 144.00     17.299     36.464
 144.00     17.307     36.222
 144.00     17.316     35.980
 144.00     17.326     35.859
 144.00     17.335     35.738
 144.00     17.341     35.375
 144.00     17.355     35.254
 144.00     17.361     34.166
 144.00     17.372     34.528
 144.00     17.380     34.044
 144.00     17.384     33.077
 144.00     17.390     32.231
 144.00     17.394     31.144
 144.00     17.399     30.056
 144.00     17.405     28.968
 144.00     17.412     27.518
 144.00     17.419     26.188
 144.00     17.426     24.738
 144.00     17.433     23.408
 144.00     17.438     22.079
 144.00     17.447     21.112
 144.00     17.460     21.232
 144.00     17.470     21.232
 144.00     17.476     19.298
 144.00     17.486     18.210
 144.00     17.497     17.606
 144.00     17.508     17.243
 144.00     17.521     16.638
 144.00     17.533     16.033
 144.00     17.544     15.671
 144.00     17.554     15.549
 144.00     17.567     15.066
 144.00     17.578     14.703
 144.00     17.589     14.582
 144.00     17.601     14.339
 144.00     17.613     14.218
 144.00     17.624     14.218
 144.00     17.632     14.218
 151.00     16.380    0.22867E-02
 151.00     16.395    0.29478E-02
 151.00     16.416    0.38191E-02
 151.00     16.430    0.49671
 151.00     16.442    0.86644
 151.00     16.451     2.4668
 151.00     16.469     3.2060
 151.00     16.485     3.3298
 151.00     16.500     3.4535
 151.00     16.510     2.9616
 151.00     16.525     3.2084
 151.00     16.542     3.0860
 151.00     16.558     2.9636
 151.00     16.579     3.5799
 151.00     16.598     3.5806
 151.00     16.611     3.8274
 151.00     16.625     3.9510
 151.00     16.633     4.1975
 151.00     16.642     4.4440
 151.00     16.656     4.8139
 151.00     16.676     4.6916
 151.00     16.693     5.3077
 151.00     16.703     5.3081
 151.00     16.719     6.0472
 151.00     16.728     6.1707
 151.00     16.738     6.2942
 151.00     16.752     6.0487
 151.00     16.767     6.4185
 151.00     16.781     7.1575
 151.00     16.801     6.2968
 151.00     16.816     6.0513
 151.00     16.829     6.0518
 151.00     16.839     6.2985
 151.00     16.854     6.5452
 151.00     16.865     6.2995
 151.00     16.875     6.2999
 151.00     16.889     7.1621
 151.00     16.905     7.6550
 151.00     16.920     8.1480
 151.00     16.929     8.6407
 151.00     16.940     9.5026
 151.00     16.953     11.349
 151.00     16.967     11.719
 151.00     16.971     14.427
 151.00     16.986     14.674
 151.00     17.003     15.044
 151.00     17.014     14.429
 151.00     17.015     18.613
 151.00     17.026     18.368
 151.00     17.036     20.830
 151.00     17.047     21.199
 151.00     17.054     22.923
 151.00     17.065     23.539
 151.00     17.076     23.416
 151.00     17.088     22.678
 151.00     17.101     22.556
 151.00     17.115     23.664
 151.00     17.133     22.557
 151.00     17.133     24.649
 151.00     17.148     20.342
 151.00     17.159     19.850
 151.00     17.167     18.743
 151.00     17.180     17.143
 151.00     17.190     16.405
 151.00     17.198     15.298
 151.00     17.202     14.314
 151.00     17.213     13.453
 151.00     17.230     13.699
 151.00     17.242     13.946
 151.00     17.255     13.577
 151.00     17.266     13.209
 151.00     17.273     12.963
 151.00     17.280     12.717
 151.00     17.293     12.225
 151.00     17.304     12.349
 151.00     17.314     12.841
 151.00     17.327     13.088
 151.00     17.340     12.842
 151.00     17.353     13.089
 151.00     17.364     13.090
 151.00     17.374     13.336
 151.00     17.384     13.214
 151.00     17.391     13.337
 151.00     17.399     13.337
 151.00     17.407     12.353
 151.00     17.419     11.861
 151.00     17.430     10.877
 151.00     17.439     9.7697
 151.00     17.450     8.5394
 151.00     17.459     9.7705
 151.00     17.469     9.6479
 151.00     17.484     9.4023
 151.00     17.497     8.6645
 151.00     17.508     6.6957
 151.00     17.525     6.2041
 151.00     17.541     5.7124
 151.00     17.555     5.8361
 151.00     17.562     4.8518
 151.00     17.573     5.0984
 151.00     17.582     4.8526
 151.00     17.594     4.8531
 151.00     17.605     4.4843
 151.00     17.614     3.7463
 151.00     17.625     3.1313
 151.00     17.634     2.8856
 151.00     17.646     2.3938
 151.00     17.655     2.3941
 161.00     16.368    0.16674E-02
 161.00     16.378    0.30103
 161.00     16.391     1.0582
 161.00     16.397     1.2095
 161.00     16.409     1.9667
 161.00     16.423     3.1783
 161.00     16.429     8.4811
 161.00     16.432     11.663
 161.00     16.437     16.057
 161.00     16.443     21.359
 161.00     16.447     25.753
 161.00     16.458     27.268
 161.00     16.474     26.661
 161.00     16.482     26.207
 161.00     16.484     23.631
 161.00     16.498     21.509
 161.00     16.505     24.084
 161.00     16.519     25.599
 161.00     16.530     26.811
 161.00     16.541     28.023
 161.00     16.548     28.477
 161.00     16.559     29.083
 161.00     16.573     32.112
 161.00     16.587     32.870
 161.00     16.598     34.384
 161.00     16.610     34.687
 161.00     16.624     34.535
 161.00     16.638     32.868
 161.00     16.644     37.716
 161.00     16.656     35.746
 161.00     16.664     37.261
 161.00     16.674     36.351
 161.00     16.679     34.381
 161.00     16.690     34.078
 161.00     16.699     32.260
 161.00     16.707     31.047
 161.00     16.714     29.683
 161.00     16.722     28.168
 161.00     16.738     28.773
 161.00     16.750     27.409
 161.00     16.758     27.561
 161.00     16.766     24.227
 161.00     16.777     23.014
 161.00     16.789     22.862
 161.00     16.798     22.559
 161.00     16.808     21.953
 161.00     16.823     20.740
 161.00     16.831     22.103
 161.00     16.854     21.345
 161.00     16.872     23.011
 161.00     16.883     24.526
 161.00     16.894     25.889
 161.00     16.901     28.465
 161.00     16.904     30.586
 161.00     16.911     33.464
 161.00     16.915     31.798
 161.00     16.923     34.221
 161.00     16.929     35.736
 161.00     16.934     37.403
 161.00     16.938     39.221
 161.00     16.949     41.342
 161.00     16.957     43.160
 161.00     16.966     44.978
 161.00     16.975     46.492
 161.00     16.981     47.856
 161.00     16.990     48.462
 161.00     16.998     47.401
 161.00     17.009     46.946
 161.00     17.014     44.521
 161.00     17.024     44.066
 161.00     17.035     45.127
 161.00     17.038     49.217
 161.00     17.047     46.944
 161.00     17.055     45.581
 161.00     17.063     44.368
 161.00     17.072     43.913
 161.00     17.078     46.186
 161.00     17.090     45.428
 161.00     17.095     47.700
 161.00     17.106     46.639
 161.00     17.113     45.427
 161.00     17.127     42.851
 161.00     17.148     42.850
 161.00     17.165     42.849
 161.00     17.182     42.394
 161.00     17.195     45.273
 161.00     17.205     45.727
 161.00     17.216     44.060
 161.00     17.230     43.605
 161.00     17.243     42.392
 161.00     17.257     41.937
 161.00     17.261     44.967
 161.00     17.269     47.391
 161.00     17.269     50.118
 161.00     17.283     45.724
 161.00     17.295     45.724
 161.00     17.311     44.056
 161.00     17.329     42.238
 161.00     17.342     41.177
 161.00     17.360     41.782
 161.00     17.376     39.206
 161.00     17.394     37.993
 161.00     17.409     35.871
 161.00     17.419     34.204
 161.00     17.427     32.689
 161.00     17.440     31.476
 161.00     17.465     31.324
 161.00     17.477     30.717
 161.00     17.491     30.565
 161.00     17.511     31.171
 161.00     17.528     30.716
 161.00     17.541     31.170
 161.00     17.550     33.442
 161.00     17.567     31.320
 161.00     17.583     31.320
 161.00     17.603     30.107
 161.00     17.623     29.500
 170.00     16.371     49.978
 170.00     16.376     60.582
 170.00     16.380     66.641
 170.00     16.386     66.259
 170.00     16.396     68.149
 170.00     16.405     65.872
 170.00     16.416     61.701
 170.00     16.425     61.697
 170.00     16.435     60.178
 170.00     16.440     82.145
 170.00     16.445     98.052
 170.00     16.449     104.11
 170.00     16.464     96.150
 170.00     16.480     97.658
 170.00     16.496     91.591
 170.00     16.521     94.610
 170.00     16.540     96.875
 170.00     16.548     102.93
 170.00     16.552     107.48
 170.00     16.557     111.64
 170.00     16.563     115.43
 170.00     16.571     124.13
 170.00     16.583     132.08
 170.00     16.601     135.49
 170.00     16.608     142.30
 170.00     16.622     140.78
 170.00     16.636     142.67
 170.00     16.649     144.18
 170.00     16.661     147.96
 170.00     16.674     147.95
 170.00     16.686     152.11
 170.00     16.701     152.11
 170.00     16.710     147.18
 170.00     16.718     142.63
 170.00     16.727     137.32
 170.00     16.738     131.64
 170.00     16.747     127.47
 170.00     16.759     121.02
 170.00     16.778     114.95
 170.00     16.795     111.54
 170.00     16.806     106.23
 170.00     16.822     100.54
 170.00     16.836     95.989
 170.00     16.850     92.952
 170.00     16.859     98.251
 170.00     16.870     96.353
 170.00     16.876     103.93
 170.00     16.880     106.95
 170.00     16.882     115.29
 170.00     16.891     110.36
 170.00     16.894     118.69
 170.00     16.898     123.99
 170.00     16.904     128.16
 170.00     16.909     132.32
 170.00     16.913     136.86
 170.00     16.916     141.03
 170.00     16.921     144.82
 170.00     16.926     149.74
 170.00     16.931     155.42
 170.00     16.935     159.58
 170.00     16.940     164.88
 170.00     16.943     169.05
 170.00     16.949     172.46
 170.00     16.955     176.24
 170.00     16.958     180.41
 170.00     16.963     196.31
 170.00     16.970     204.64
 170.00     16.978     212.22
 170.00     16.981     217.14
 170.00     16.992     220.92
 170.00     16.998     225.84
 170.00     17.019     228.49
 170.00     17.038     229.61
 170.00     17.052     229.99
 170.00     17.060     225.44
 170.00     17.073     223.54
 170.00     17.086     227.32
 170.00     17.092     220.12
 170.00     17.097     214.82
 170.00     17.103     208.75
 170.00     17.110     203.45
 170.00     17.115     198.90
 170.00     17.122     194.73
 170.00     17.129     189.42
 170.00     17.136     183.36
 170.00     17.142     178.43
 170.00     17.148     174.26
 170.00     17.158     170.47
 170.00     17.163     164.79
 170.00     17.166     159.86
 170.00     17.176     159.86
 170.00     17.183     165.91
 170.00     17.204     164.77
 170.00     17.218     162.11
 170.00     17.235     160.97
 170.00     17.254     167.40
 170.00     17.264     172.70
 170.00     17.276     174.21
 170.00     17.287     180.26
 170.00     17.298     176.85
 170.00     17.309     171.92
 170.00     17.319     165.48
 170.00     17.328     162.06
 170.00     17.337     157.89
 170.00     17.344     154.86
 170.00     17.358     160.54
 170.00     17.368     158.26
 170.00     17.382     152.57
 170.00     17.395     147.64
 170.00     17.403     140.44
 170.00     17.410     133.24
 170.00     17.416     129.07
 170.00     17.425     121.49
 170.00     17.433     116.94
 170.00     17.442     110.50
 170.00     17.448     104.81
 170.00     17.464     102.53
 170.00     17.479     99.498
 170.00     17.490     96.463
 170.00     17.511     94.938
 170.00     17.522     94.176
 170.00     17.535     93.413
 170.00     17.555     92.646
 170.00     17.563     97.189
 170.00     17.576     96.046
 170.00     17.585     95.285
 170.00     17.595     93.008
 170.00     17.606     89.594
 170.00     17.616     87.696
 170.00     17.628     85.796
 170.00     17.639     83.898
 170.00     17.651     81.999
ENDDATA           1176
ENDSUBENT         1189
SUBENT        F0754003   20060403   20060814   20060808       F024
BIB                  3          5
REACTION  1(6-C-14(A,EL),,WID)
          2(6-C-14(A,0),,J)
          3(6-C-14(A,0),,PTY)
ERR-ANALYS (DATA-ERR) Errors in data definition
STATUS     (TABLE)Table 1
ENDBIB               5
NOCOMMON             0          0
DATA                 6         34
EN-RES     EN-RES-ERR DATA      1DATA-ERR  1DATA      2DATA      3
MEV        KEV        KEV        KEV        NO-DIM     NO-DIM
 3.6000     150.00     500.00     150.00     1.0000    -1.0000
 3.6000     30.000     500.00     50.000     0.0000     1.0000
 3.7100     10.000     380.00     15.000     2.0000     1.0000
 4.0700     20.000     200.00     20.000     3.0000    -1.0000
 4.4700     20.000     180.00     30.000     1.0000    -1.0000
 4.4800     15.000     75.000     10.000     3.0000    -1.0000
 4.5600     20.000     300.00     30.000     3.0000    -1.0000
 4.6500     30.000     400.00     50.000     0.0000     1.0000
 4.6500     30.000     400.00     50.000     2.0000     1.0000
 4.7800                300.00                1.0000    -1.0000
 4.9800     10.000     45.000     8.0000     3.0000    -1.0000
 5.2200     10.000     30.000     7.0000     4.0000     1.0000
 5.3200     10.000     45.000     8.0000     3.0000    -1.0000
 5.4000     150.00     500.00     150.00     2.0000     1.0000
 5.4500     100.00     800.00     200.00     1.0000    -1.0000
 5.8400     30.000     180.00     40.000     3.0000    -1.0000
 5.9400                250.00                0.0000     1.0000
 6.3000                600.00                3.0000    -1.0000
 6.6700     5.0000     45.000                4.0000     1.0000
 6.9200     10.000     60.000     5.0000     5.0000    -1.0000
 7.0300     10.000     35.000     5.0000     6.0000     1.0000
 7.8300     10.000     80.000     10.000     5.0000    -1.0000
 8.1000     10.000     32.000     5.0000     6.0000     1.0000
 15.700                60.000                7.0000    -1.0000
 16.050     30.000     320.00                7.0000    -1.0000
 16.660     40.000     145.00                7.0000    -1.0000
 17.010     30.000     113.00                7.0000    -1.0000
 17.260     40.000     52.000                7.0000    -1.0000
 17.550     50.000     21.000                5.0000    -1.0000
 17.600                43.000                7.0000    -1.0000
 18.000                326.00                8.0000     1.0000
 18.450                36.000                6.0000     1.0000
 18.800                170.00                6.0000     1.0000
 19.300                67.000                6.0000     1.0000
ENDDATA             36
ENDSUBENT           46
ENDENTRY             3
