ENTRY            23344   20170625   20180122   20180122       2260
SUBENT        23344001   20170625   20180122   20180122       2260
BIB                  7         11
TITLE      Energy spectra of delayed neutrons at beta- decay of
           cesium 141-146
AUTHOR     (H.Ohm,K.-L.Kratz, C.Ristori, J.Crancon, W.D.Wuensch,
           G.Jung)
INSTITUTE  (2FR ILL)
REFERENCE  (P,MAINZ-77,59,1978) In German
FACILITY   (REAC,2FR ILL)  On-line separator OSTIS
CORRECTION  - For thermal neutrons peak .
            - Background.
            - Detection efficiency.
HISTORY    (20170625C) M.M.
ENDBIB              11
NOCOMMON             0          0
ENDSUBENT           14
SUBENT        23344002   20170625   20180122   20180122       2260
BIB                  5          8
REACTION   (55-CS-141(0,B-)56-BA-141,,PN/DE,,REL)
DECAY-DATA (55-CS-141,25.SEC)
EN-SEC     (E,N) Energy of delayed neutrons.
ERR-ANALYS (E-ERR-DIG) Digitizing error of E ( X scale)
           (ERR-DIG)    Digitizing error of DATA ( Y scale)
           Quantization errors (one pixel):
           scale X - 0.870 keV, scale Y - 0.298 arb.units.
STATUS     (CURVE) Fig.29a of P,MAINZ-77,59,197
ENDBIB               8
COMMON               2          3
E-ERR-DIG  ERR-DIG
KEV        ARB-UNITS
 0.553      0.236
ENDCOMMON            3
DATA                 3        243
E-MIN      E-MAX      DATA
KEV        KEV        ARB-UNITS
             12.999      10.479
 12.999      15.423      26.848
 15.423      19.055      43.666
 19.055      22.493      77.001
 22.493      25.572     128.785
 25.572      28.599     226.250
 28.599      31.039     287.555
 31.039      33.762     334.280
 33.762      36.647     345.000
 36.647      39.569     362.855
 39.569      43.202     366.580
 43.202      45.603     335.490
 45.603      48.353     325.670
 48.353      50.665     310.050
 50.665      54.831     301.575
 54.831      57.603     342.495
 57.603      60.525     349.940
 60.525      63.945     364.375
 63.945      67.045     360.365
 67.045      72.809     354.565
 72.809      75.585     340.140
 75.585      81.453     324.665
 81.453      85.111     301.760
 85.111      88.346     292.540
 88.346      91.626     267.545
 91.626      94.718     250.440
 94.718      96.370     258.775
 96.370     100.315     265.920
100.315     102.675     252.980
102.675     106.220     232.900
106.220     109.775     240.490
109.775     114.935     219.515
114.935     117.400     251.065
117.400     120.790     245.710
120.790     124.045     266.845
124.045     126.675     286.045
126.675     129.185     339.615
129.185     132.375     304.205
132.375     135.585     313.435
135.585     138.940     274.600
138.940     142.330     258.240
142.330     144.890     212.120
144.890     148.180     188.905
148.180     150.975     168.530
150.975     153.710     155.440
153.710     156.795     145.920
156.795     158.525     147.560
158.525     160.600     147.860
160.600     163.475     164.825
163.475     165.865     178.520
165.865     168.830     204.710
168.830     171.855     191.320
171.855     174.845     208.440
174.845     178.885     201.000
178.885     181.420     185.530
181.420     184.585     214.550
184.585     187.920     164.410
187.920     190.165     161.885
190.165     192.810     151.470
192.810     195.585     155.790
195.585     198.075     199.540
198.075     201.280     176.925
201.280     204.885     170.830
204.885     207.490     154.765
207.490     210.095     171.730
210.095     214.420     155.365
214.420     216.555     175.160
216.555     220.055     162.965
220.055     222.155     171.000
222.155     225.880     176.360
225.880     228.365     204.790
228.365     232.170     198.245
232.170     234.100     224.140
234.100     237.705     241.995
237.705     241.055     201.680
241.055     244.555     186.805
244.555     246.645     197.520
246.645     249.990     202.430
249.990     252.465     220.590
252.465     255.700     227.140
255.700     258.860     186.970
258.860     261.975     205.720
261.975     265.505     173.885
265.505     268.290     197.550
268.290     271.200     219.570
271.200     274.325     221.215
274.325     276.955     205.445
276.955     279.600     217.500
279.600     282.155     276.130
282.155     285.665     305.295
285.665     288.175     270.185
288.175     291.845     245.045
291.845     294.880     236.420
294.880     297.575     246.690
297.575     300.975     220.505
300.975     304.120     183.160
304.120     306.745     202.810
306.745     310.420     179.895
310.420     313.025     167.400
313.025     315.595     180.795
315.595     318.685     174.255
318.685     321.200     172.920
321.200     324.365     189.885
324.365     328.060     152.690
328.060     330.650     150.760
330.650     333.560     155.820
333.560     336.195     174.570
336.195     340.110     151.070
340.110     342.555     174.880
342.555     345.905     102.570
345.905     349.000     119.535
349.000     352.375      93.949
352.375     355.250     138.290
355.250     358.515     124.010
358.515     362.675      98.424
362.675     366.950      79.386
366.950     370.220     111.975
370.220     372.790     116.890
372.790     375.365     118.975
375.365     379.385     122.850
379.385     382.070      99.939
382.070     384.545     109.320
384.545     387.065     123.900
387.065     390.310     125.245
390.310     393.445      87.752
393.445     397.395     109.035
397.395     399.780      81.512
399.780     401.870      70.355
401.870     403.995      96.843
403.995     407.895      78.844
407.895     411.670      99.530
411.670     414.905     103.550
414.905     417.245      65.465
417.245     420.325      74.248
420.325     422.415      59.074
422.415     425.750      87.943
425.750     429.285      85.567
429.285     432.385      77.835
432.385     435.500      75.606
435.500     438.980      65.791
438.980     441.830      74.424
441.830     444.105     100.615
444.105     447.325      56.130
447.325     450.220      69.079
450.220     452.825      83.069
452.825     456.860      70.278
456.860     460.385      60.611
460.385     462.935      62.697
462.935     465.510      70.290
465.510     467.785      69.102
467.785     470.875      52.293
470.875     473.435      60.480
473.435     475.160      61.375
475.160     477.730      63.313
477.730     480.725      67.333
480.725     484.390      72.248
484.390     486.660      34.905
486.660     489.605      54.846
489.605     493.000      52.916
493.000     496.070      69.436
496.070     498.390      47.567
498.390     501.900      44.000
501.900     506.775      41.476
506.775     509.450      27.494
509.450     512.455      29.878
512.455     516.385      35.091
516.385     518.205      26.316
518.205     522.630      20.071
522.630     525.665      13.083
525.665     527.805      22.162
527.805     530.795      19.190
530.795     533.810      31.841
533.810     536.865      23.661
536.865     540.360      29.618
540.360     543.870      20.992
543.870     552.525      23.678
552.525     554.795      28.596
554.795     558.305       6.727
558.305     560.785      22.502
560.785     563.760      30.244
563.760     567.370      34.563
567.370     570.495       7.040
570.495     573.120      19.840
573.120     576.225       4.072
576.225     579.720       9.135
579.720     583.145       1.105
583.145     586.530      18.816
586.530     589.185      17.480
589.185     594.020      10.641
594.020     597.440       8.266
597.440     600.425      21.066
600.425     603.055      18.837
603.055     606.590      17.355
606.590     609.265       8.579
609.265     611.495       5.458
611.495     614.090       0.
614.090     617.070       7.845
617.070     621.465      10.379
621.465     624.965       0.
624.965     627.925       6.520
627.925     630.570      14.708
630.570     633.215       0.
633.215     635.810       9.060
635.810     642.745       1.329
642.745     645.760      12.793
645.760     648.450       6.696
648.450     651.495       0.
651.495     653.650       5.066
653.650     657.170       2.541
657.170     660.635       0.
660.635     663.245       4.037
663.245     666.695       0.
666.695     670.130       8.956
670.130     672.290       6.579
672.290     675.375      11.938
675.375     678.455       0.
678.455     681.930       5.251
681.930     690.635       0.052
690.635     695.860       2.887
695.860     699.345       0.
699.345     702.335       0.815
702.335     704.875       9.894
704.875     709.285      13.471
709.285     711.430       0.
711.430     714.470      18.685
714.470     716.715       0.
716.715     720.625       6.641
720.625     723.620       0.
723.620     727.055      15.279
727.055     730.185       6.952
730.185     738.420       0.114
738.420     741.030      11.430
741.030     748.930       0.114
748.930     754.945       0.
754.945     757.990      13.088
757.990     765.865       0.
765.865     771.060       4.325
771.060     775.875       2.100
775.875     781.080       0.
781.080     782.750       4.343
782.750     786.670      11.489
786.670     789.785       2.864
789.785                   0.0
ENDDATA            245
ENDSUBENT          262
SUBENT        23344003   20170625   20180122   20180122       2260
BIB                  5          8
REACTION   (55-CS-142(0,B-)56-BA-142,,PN/DE,,REL)
DECAY-DATA (55-CS-142,1.61SEC)
EN-SEC     (E,N) Energy of delayed neutrons.
ERR-ANALYS (E-ERR-DIG) Digitizing error of E ( X scale)
           (ERR-DIG)    Digitizing error of DATA ( Y scale)
           Quantization errors (one pixel):
           scale X - 0.923 keV, scale Y - 0.471 arb.units.
STATUS     (CURVE) Fig.29b of P,MAINZ-77,59,197
ENDBIB               8
COMMON               2          3
E-ERR-DIG  ERR-DIG
KEV        ARB-UNITS
 0.415      0.342
ENDCOMMON            3
DATA                 3        409
E-MIN      E-MAX      DATA
KEV        KEV        ARB-UNITS
              9.220      73.571
  9.220      11.996      62.988
 11.996      14.307      51.700
 14.307      15.682      49.114
 15.682      17.961      77.335
 17.961      19.340     124.840
 19.340      21.653      93.563
 21.653      24.392     104.150
 24.392      26.666     174.230
 26.666      28.950     195.400
 28.950      30.781     241.255
 30.781      33.088     236.555
 33.088      35.858     235.850
 35.858      37.711     232.080
 37.711      41.407     211.390
 41.407      44.172     213.270
 44.172      46.456     221.270
 46.456      48.743     277.240
 48.743      51.504     273.480
 51.504      53.795     300.055
 53.795      56.099     313.930
 56.099      59.790     310.170
 59.790      62.109     311.580
 62.109      63.980     269.955
 63.980      65.832     239.375
 65.832      68.130     250.430
 68.130      69.975     261.955
 69.975      71.829     252.320
 71.829      73.686     234.910
 73.686      76.461     216.805
 76.461      78.303     213.750
 78.303      80.154     224.570
 80.154      82.017     198.230
 82.017      84.331     173.300
 84.331      87.096     174.475
 87.096      89.400     180.355
 89.400      91.699     182.240
 91.699      97.222     200.345
 97.222      99.982     214.220
 99.982     103.215     222.690
103.215     105.995     208.345
105.995     107.840     194.470
107.840     110.610     188.585
110.610     113.835     189.300
113.835     115.680     199.640
115.680     117.525     205.760
117.525     119.380     193.530
119.380     121.690     175.660
121.690     123.985     180.360
123.985     125.820     206.230
125.820     128.125     213.995
128.125     129.985     196.350
129.985     131.835     182.005
131.835     134.140     179.890
134.140     135.525     190.240
135.525     137.375     176.365
137.375     139.230     165.545
139.230     141.540     158.730
141.540     143.385     150.260
143.385     144.310     156.380
144.310     146.610     153.560
146.610     147.995     157.790
147.995     149.835     158.965
149.835     151.665     175.660
151.665     154.425     191.655
154.425     156.270     201.060
156.270     157.660     196.125
157.660     159.500     190.485
159.500     161.810     193.540
161.810     164.110     194.950
164.110     165.965     193.540
165.965     167.820     171.195
167.820     169.665     169.550
169.665     171.965     178.490
171.965     173.345     185.070
173.345     176.115     190.250
176.115     177.965     175.670
177.965     179.805     173.790
179.805     180.725     183.190
180.725     183.490     187.195
183.490     185.805     189.310
185.805     187.650     174.260
187.650     190.880     177.080
190.880     192.725     181.310
192.725     194.575     168.385
194.575     195.965     158.035
195.965     198.275     150.035
198.275     200.115     154.040
200.115     201.490     162.030
201.490     202.405     183.200
202.405     204.715     178.490
204.715     207.480     179.910
207.480     209.790     186.960
209.790     212.105     167.680
212.105     213.950     161.090
213.950     216.250     170.500
216.250     217.645     169.090
217.645     219.950     152.160
219.950     221.795     155.920
221.795     223.640     161.095
223.640     225.480     163.450
225.480     227.780     170.500
227.780     229.625     172.615
229.625     231.925     188.380
231.925     234.235     181.085
234.235     235.160     171.205
235.160     237.935     169.795
237.935     240.255     153.335
240.255     242.095     140.870
242.095     243.930     155.450
243.930     245.305     175.915
245.305     246.680     192.140
246.680     249.455     184.620
249.455     251.305     171.450
251.305     253.605     175.680
253.605     255.440     190.730
255.440     257.755     202.020
257.755     259.155     167.925
259.155     261.925     160.630
261.925     263.780     154.520
263.780     265.635     128.180
265.635     267.475     140.880
267.475     269.780     136.645
269.780     271.630     135.230
271.630     273.940     139.000
273.940     275.795     115.010
275.795     278.100     106.775
278.100     280.410     114.775
280.410     281.785     113.600
281.785     284.090     128.180
284.090     285.940     125.125
285.940     286.870     102.780
286.870     289.175      99.020
289.175     291.480     109.370
291.480     293.320     111.250
293.320     294.710     108.900
294.710     297.470     110.545
297.470     300.240     114.540
300.240     302.550     112.190
302.550     304.395     109.135
304.395     306.700     111.250
306.700     308.090     107.255
308.090     311.325      96.437
311.325     313.635      85.385
313.635     315.475      93.381
315.475     317.775     104.200
317.775     320.085      98.555
320.085     321.940      90.795
321.940     323.790      77.391
323.790     326.090      82.094
326.090     328.390      89.620
328.390     330.690      99.263
330.690     332.080     103.730
332.080     333.945      77.628
333.945     335.325      57.403
335.325     337.615      80.215
337.615     339.455     106.080
339.455     341.300      97.619
341.300     343.150     101.145
343.150     345.925      98.325
345.925     348.240      81.628
348.240     350.550      61.404
350.550     352.380      72.692
352.380     354.205     107.030
354.205     356.055     121.140
356.055     357.445      98.563
357.445     359.280     105.385
359.280     361.585     125.370
361.585     362.060     105.385
362.060     363.905      98.093
363.905     365.740     105.150
365.740     368.510     115.030
368.510     370.365      98.565
370.365     372.675      83.984
372.675     374.515      88.924
374.515     376.355     105.150
376.355     377.745      92.451
377.745     381.905      93.628
381.905     384.210      69.406
384.210     386.045      94.100
386.045     387.885     111.740
387.885     390.200      95.746
390.200     392.970      94.570
392.970     395.270      93.866
395.270     396.655      99.510
396.655     398.515      88.457
398.515     400.355      69.409
400.355     401.735      87.282
401.735     404.045      83.755
404.045     406.805      81.168
406.805     408.655      93.163
408.655     410.505      83.521
410.505     412.350      76.701
412.350     415.115      75.055
415.115     416.035      89.166
416.035     418.815      79.054
418.815     421.115      64.238
421.115     423.415      87.051
423.415     425.725      74.587
425.725     427.105      91.049
427.105     428.960      82.113
428.960     431.725      66.357
431.725     434.035      75.999
434.035     435.880      67.534
435.880     438.185      66.123
438.185     440.025      75.060
440.025     441.865      85.408
441.865     443.725      74.590
443.725     444.650      63.772
444.650     449.720      60.010
449.720     451.570      61.892
451.570     452.950      58.835
452.950     455.255      57.659
455.255     457.090      75.533
457.090     460.320      86.117
460.320     461.710      62.835
461.710     463.555      67.304
463.555     464.935      80.709
464.935     467.250      73.889
467.250     469.095      52.488
469.095     471.395      66.834
471.395     474.170      74.125
474.170     476.945      50.608
476.945     478.790      48.492
478.790     480.170      55.547
480.170     482.475      60.486
482.475     484.325      53.902
484.325     486.175      43.084
486.175     488.480      40.968
488.480     489.855      46.377
489.855     492.160      57.666
492.160     494.000      61.430
494.000     496.310      64.722
496.310     499.085      58.373
499.085     500.935      45.439
500.935     502.320      34.386
502.320     505.085      43.323
505.085     507.395      51.790
507.395     509.235      36.033
509.235     511.540      57.200
511.540     514.770      42.854
514.770     516.610      49.675
516.610     519.380      54.144
519.380     521.690      44.737
521.690     523.535      41.680
523.535     525.840      47.325
525.840     527.690      41.681
527.690     529.995      37.918
529.995     532.755      49.442
532.755     535.520      58.380
535.520     537.830      59.556
537.830     539.220      34.392
539.220     541.520      48.974
541.520     543.825      57.205
543.825     545.680      45.682
545.680     547.985      42.390
547.985     549.835      31.337
549.835     553.520      37.922
553.520     555.820      42.392
555.820     559.975      48.742
559.975     562.295      36.043
562.295     564.600      24.285
564.600     568.745      32.752
568.745     572.895      44.746
572.895     575.200      34.164
575.200     575.660      38.868
575.660     577.500      42.865
577.500     579.805      45.453
579.805     582.570      55.802
582.570     584.415      54.391
584.415     585.805      43.573
585.805     588.110      52.275
588.110     590.425      38.870
590.425     593.195      22.173
593.195     595.035      40.282
595.035     596.885      36.049
596.885     598.725      27.818
598.725     600.110      38.401
600.110     602.410      40.754
602.410     604.260      38.873
604.260     606.110      31.818
606.110     608.880      25.939
608.880     612.110      28.056
612.110     614.875      19.590
614.875     616.715      32.525
616.715     619.480      39.111
619.480     621.790      36.759
621.790     623.640      27.117
623.640     626.400      31.586
626.400     628.245      38.406
628.245     631.940      32.528
631.940     633.325      29.941
633.325     635.635      20.535
635.635     638.860      26.650
638.860     641.165      28.532
641.165     643.925      44.524
643.925     645.310      39.350
645.310     647.615      35.588
647.615     649.460      41.703
649.460     651.775      36.059
651.775     655.010      24.536
655.010     656.860      15.835
656.860     658.705       9.956
658.705     661.465      15.131
661.465     662.845      25.243
662.845     664.690      30.888
664.690     666.540      28.536
666.540     667.930      16.307
667.930     670.230      18.189
670.230     672.995      25.950
672.995     674.845      23.834
674.845     677.150      15.839
677.150     679.000      17.720
679.000     680.840      16.310
680.840     682.685      15.134
682.685     684.525      21.484
684.525     686.370      29.010
686.370     688.220      25.483
688.220     690.985      16.547
690.985     691.895      32.539
691.895     694.665      49.236
694.665     696.520      29.012
696.520     699.285      21.957
699.285     700.665      34.657
700.665     703.895      33.246
703.895     706.665      30.895
706.665     708.050      19.137
708.050     709.435      22.194
709.435     711.285      24.782
711.285     713.595      11.377
713.595     715.900       7.379
715.900     717.275      19.374
717.275     720.500      29.016
720.500     722.815      24.548
722.815     724.210       7.616
724.210     726.055       2.207
726.055     728.810      15.143
728.810     731.580      21.493
731.580     733.420      24.080
733.420     735.730      22.199
735.730     738.490      25.257
738.490     742.645      24.316
742.645     744.955      28.080
744.955     749.105      14.441
749.105     751.415      23.377
751.415     754.185      15.147
754.185     756.490      13.971
756.490     760.180      20.322
760.180     763.405      19.382
763.405     764.790      20.793
764.790     768.020      17.501
768.020     770.785      14.915
770.785     773.090      23.146
773.090     774.015      20.089
774.015     776.330       4.568
776.330     778.630      10.683
778.630     780.930      19.385
780.930     783.240      20.561
783.240     785.085      19.151
785.085     786.930      17.270
786.930     789.235      22.444
789.235     790.630       9.039
790.630     792.935       2.219
792.935     795.240       8.099
795.240     797.540      13.979
797.540     802.155      18.683
802.155     804.925      12.334
804.925     805.850       4.338
805.850     808.610       9.983
808.610     810.920      12.806
810.920     812.305      18.215
812.305     814.610       6.927
814.610     816.920       7.868
816.920     819.225      13.042
819.225     825.220       2.695
825.220     827.060      13.279
827.060     828.445      17.983
828.445     832.140       3.637
832.140     836.750       4.579
836.750     839.510      21.042
839.510     840.895      25.981
840.895     842.290       4.815
842.290     847.365       0.
847.365     848.740      12.577
848.740     850.595      10.696
850.595     856.130       0.
856.130     858.890       6.229
858.890     860.740       7.876
860.740     863.045       9.758
863.045     878.270       0.
878.270     879.190       3.881
879.190     881.035       9.761
881.035     884.725       0.
884.725     887.020      16.818
887.020     888.865      22.932
888.865     891.180      11.644
891.180     894.410       3.649
894.410     897.180       4.590
897.180     906.405       0.
906.405     908.715       3.886
908.715     914.705       0.
914.705     917.470      13.530
917.470     919.780       9.768
919.780     923.010       7.181
923.010     941.460       0.
941.460     943.300       6.715
943.300     945.605      13.300
945.605     947.920       3.894
947.920                   0.0
ENDDATA            411
ENDSUBENT          428
SUBENT        23344004   20170625   20180122   20180122       2260
BIB                  5          8
REACTION   (55-CS-143(0,B-)56-BA-143,,PN/DE,,REL)
DECAY-DATA (55-CS-143,1.77SEC)
EN-SEC     (E,N) Energy of delayed neutrons.
ERR-ANALYS (E-ERR-DIG) Digitizing error of E ( X scale)
           (ERR-DIG)    Digitizing error of DATA ( Y scale)
           Quantization errors (one pixel):
           scale X - 1.03 keV, scale Y - 1.06 arb.units.
STATUS     (CURVE) Fig.29c of P,MAINZ-77,59,197
ENDBIB               8
COMMON               2          3
E-ERR-DIG  ERR-DIG
KEV        ARB-UNITS
 2.20       1.54
ENDCOMMON            3
DATA                 3        450
E-MIN      E-MAX      DATA
KEV        KEV        ARB-UNITS
               5.08       0.0
   5.08        7.11       8.38
   7.11       10.60      11.03
  10.60       12.47      50.09
  12.47       13.77      92.32
  13.77       15.36     148.26
  15.36       16.16     287.60
  16.16       16.94     462.80
  16.94       17.86     607.39
  17.86       19.51     723.50
  19.51       20.91     780.50
  20.91       24.05     782.62
  24.05       26.28     755.20
  26.28       28.66     708.24
  28.66       31.20     619.07
  31.20       33.74     502.46
  33.74       36.64     414.87
  36.64       39.38     362.63
  39.38       41.54     341.01
  41.54       43.15     319.38
  43.15       45.76     308.85
  45.76       48.85     303.05
  48.85       52.52     306.76
  52.52       55.71     270.90
  55.71       58.28     258.77
  58.28       60.83     274.09
  60.83       63.39     264.61
  63.39       65.29     275.70
  65.29       66.08     331.12
  66.08       67.92     376.51
  67.92       69.74     421.37
  69.74       71.62     475.21
  71.62       73.59     492.63
  73.59       76.91     514.27
  76.91       80.29     605.07
  80.29       82.79     607.72
  82.79       85.33     629.89
  85.33       86.92     621.99
  86.92       89.54     607.75
  89.54       94.16     601.43
  94.16       96.72     609.89
  96.72       98.84     604.63
  98.84      100.94     580.37
 100.94      102.00     587.76
 102.00      105.69     564.55
 105.69      107.34     545.05
 107.34      110.47     518.67
 110.47      114.03     527.65
 114.03      115.97     535.07
 115.97      117.84     575.17
 117.84      119.74     611.07
 119.74      122.77     638.52
 122.77      124.72     635.38
 124.72      126.04     682.87
 126.04      129.11     725.10
 129.11      131.34     689.23
 131.34      134.53     649.66
 134.53      136.12     647.03
 136.12      137.75     626.99
 137.75      139.80     610.12
 139.80      141.44     630.17
 141.44      143.82     567.38
 143.82      147.05     491.41
 147.05      149.63     504.62
 149.63      153.68     484.06
 153.68      154.47     532.09
 154.47      157.35     585.92
 157.35      158.69     613.38
 158.69      161.01     673.54
 161.01      162.89     713.66
 162.89      164.19     746.91
 164.19      166.02     820.27
 166.02      168.60     837.70
 168.60      170.73     816.08
 170.73      173.39     808.70
 173.39      176.10     770.19
 176.10      178.26     754.89
 178.26      180.38     727.47
 180.38      183.02     725.37
 183.02      185.79     694.25
 185.79      187.45     645.18
 187.45      190.09     635.16
 190.09      191.59     620.92
 191.59      195.70     651.55
 195.70      198.33     618.85
 198.33      199.25     627.30
 199.25      203.19     664.78
 203.19      204.04     698.04
 204.04      206.01     738.15
 206.01      208.51     731.84
 208.51      210.43     768.77
 210.43      212.97     790.43
 212.97      215.63     776.20
 215.63      217.25     755.10
 217.25      220.82     741.38
 220.82      223.87     765.15
 223.87      226.94     753.56
 226.94      228.38     770.99
 228.38      230.88     798.43
 230.88      232.55     794.76
 232.55      234.76     747.79
 234.76      236.84     724.59
 236.84      238.42     740.95
 238.42      241.23     706.13
 241.23      243.53     638.08
 243.53      245.78     604.31
 245.78      247.75     553.66
 247.75      249.01     642.33
 249.01      251.26     670.83
 251.26      254.16     560.55
 254.16      256.26     529.95
 256.26      258.78     540.00
 258.78      260.33     551.62
 260.33      262.00     537.90
 262.00      264.23     494.64
 264.23      266.33     464.04
 266.33      267.79     475.65
 267.79      271.31     496.78
 271.31      274.37     508.40
 274.37      277.99     505.78
 277.99      281.12     498.94
 281.12      284.72     481.54
 284.72      285.57     501.08
 285.57      288.03     554.91
 288.03      291.07     543.85
 291.07      291.94     576.58
 291.94      294.00     604.55
 294.00      297.17     579.24
 297.17      299.32     566.59
 299.32      301.94     535.46
 301.94      303.99     545.51
 303.99      306.61     539.17
 306.61      307.75     524.41
 307.75      310.48     493.28
 310.48      312.56     453.73
 312.56      314.57     480.64
 314.57      316.71     471.15
 316.71      318.88     446.36
 318.88      321.09     422.10
 321.09      323.23     382.53
 323.23      324.74     386.24
 324.74      326.78     395.75
 326.78      328.76     392.05
 328.76      330.23     426.89
 330.23      332.32     422.69
 332.32      334.89     408.98
 334.89      338.32     421.65
 338.32      340.67     480.25
 340.67      343.72     512.98
 343.72      345.73     492.41
 345.73      347.33     534.11
 347.33      349.04     465.51
 349.04      352.63     459.19
 352.63      354.19     472.93
 354.19      356.39     448.13
 356.39      358.62     411.74
 358.62      361.23     375.33
 361.23      363.27     395.93
 363.27      366.02     378.52
 366.02      368.28     316.26
 368.28      371.44     295.69
 371.44      373.54     281.46
 373.54      375.59     276.20
 375.59      377.67     287.28
 377.67      379.82     264.07
 379.82      381.98     245.10
 381.98      385.10     220.82
 385.10      388.81     229.29
 388.81      391.01     171.26
 391.01      393.62     167.57
 393.62      395.66     157.03
 395.66      397.72     167.07
 397.72      398.77     158.63
 398.77      400.82     154.41
 400.82      402.87     163.93
 402.87      404.94     157.61
 404.94      406.51     151.81
 406.51      408.07     147.60
 408.07      411.67     142.86
 411.67      415.25     145.51
 415.25      417.26     150.28
 417.26      418.78     165.06
 418.78      420.83     158.75
 420.83      421.82     166.13
 421.82      424.34     176.69
 424.34      426.40     184.10
 426.40      430.52     174.62
 430.52      432.62     179.38
 432.62      433.70     155.64
 433.70      437.75     153.54
 437.75      440.32     182.06
 440.32      445.46     153.57
 445.46      447.54     179.98
 447.54      451.69     144.12
 451.69      453.68     164.18
 453.68      456.27     169.47
 456.27      457.36     150.48
 457.36      460.94     145.75
 460.94      464.01     155.79
 464.01      466.60     154.22
 466.60      469.13     145.26
 469.13      472.22     165.86
 472.22      475.29     145.29
 475.29      477.85     167.47
 477.85      479.97     153.76
 479.97      483.10     136.88
 483.10      486.18     134.79
 486.18      489.24     138.50
 489.24      491.26     142.20
 491.26      493.34     152.25
 493.34      496.46     132.20
 496.46      498.46     136.44
 498.46      499.95     153.86
 499.95      502.55     159.14
 502.55      506.73     138.06
 506.73      509.34     128.57
 509.34      511.38     124.37
 511.38      512.93     128.07
 512.93      514.51     123.32
 514.51      518.62     110.68
 518.62      520.15     126.52
 520.15      521.22     112.81
 521.22      523.78     109.12
 523.78      525.29     112.82
 525.29      527.73     128.13
 527.73      529.76     161.39
 529.76      531.91     141.36
 531.91      534.46     120.79
 534.46      538.05     148.24
 538.05      540.63     126.10
 540.63      543.16     138.77
 543.16      544.72     144.59
 544.72      546.27     128.76
 546.27      548.34     137.22
 548.34      550.45     126.67
 550.45      551.99     110.32
 551.99      554.50     130.91
 554.50      556.56     135.14
 556.56      558.14     129.35
 558.14      560.31     114.06
 560.31      562.40      81.35
 562.40      564.93      98.77
 564.93      567.53      96.68
 567.53      568.58      84.55
 568.58      571.16      90.89
 571.16      572.71      78.23
 572.71      574.73      85.63
 574.73      577.29      94.61
 577.29      578.82      88.82
 578.82      581.39      98.33
 581.39      584.01      86.73
 584.01      586.56      79.88
 586.56      588.05      92.56
 588.05      591.15     101.54
 591.15      594.29      82.56
 594.29      596.36      79.41
 596.36      600.00      77.31
 600.00      603.12      57.27
 603.12      605.10      64.67
 605.10      608.15      85.80
 608.15      610.75      77.89
 610.75      614.37      72.10
 614.37      617.39      68.43
 617.39      619.87      95.35
 619.87      622.46     108.04
 622.46      624.10      82.71
 624.10      627.15      67.95
 627.15      629.14      94.35
 629.14      632.14      98.05
 632.14      634.66     128.14
 634.66      637.83     117.08
 637.83      642.55      91.24
 642.55      645.70      74.37
 645.70      651.36      62.78
 651.36      656.51      70.73
 656.51      659.09      57.56
 659.09      660.04      68.12
 660.04      662.61      85.54
 662.61      664.22      68.66
 664.22      666.27      57.59
 666.27      667.20      68.15
 667.20      669.18      97.71
 669.18      672.26     101.95
 672.26      674.36      97.21
 674.36      675.96      86.14
 675.96      678.04      68.21
 678.04      680.53      74.55
 680.53      682.51     106.22
 682.51      685.15     102.02
 685.15      686.79      76.16
 686.79      688.87      59.82
 688.87      690.38      64.05
 690.38      692.44      74.61
 692.44      694.01      60.37
 694.01      695.51      64.07
 695.51      699.11      73.59
 699.11      700.13      64.10
 700.13      701.63      75.18
 701.63      703.71      78.89
 703.71      705.79      65.71
 705.79      708.83      72.05
 708.83      711.39      79.98
 711.39      712.92      74.72
 712.92      714.41      85.27
 714.41      717.03      97.95
 717.03      720.24      62.61
 720.24      723.78      48.38
 723.78      726.27      83.22
 726.27      728.36      78.49
 728.36      729.93      69.52
 729.93      732.06      64.25
 732.06      734.18      39.99
 734.18      736.20      35.25
 736.20      738.19      55.31
 738.19      740.25      60.60
 740.25      745.88      56.40
 745.88      747.90      63.28
 747.90      750.48      70.68
 750.48      752.57      63.83
 752.57      755.69      53.82
 755.69      758.27      46.44
 758.27      760.34      49.09
 760.34      762.90      42.24
 762.90      764.90      48.59
 764.90      767.45      64.96
 767.45      768.51      57.58
 768.51      770.12      48.61
 770.12      772.19      30.68
 772.19      774.19      40.19
 774.19      778.81      56.56
 778.81      780.94      40.22
 780.94      783.52      25.46
 783.52      785.02      32.86
 785.02      787.08      40.78
 787.08      788.63      33.41
 788.63      791.18      35.52
 791.18      794.25      39.76
 794.25      796.27      46.63
 796.27      798.82      49.81
 798.82      800.89      53.52
 800.89      803.00      43.50
 803.00      808.14      30.85
 808.14      808.60      43.01
 808.60      810.11      53.56
 810.11      813.74      56.74
 813.74      816.86      36.18
 816.86      820.45      42.00
 820.45      825.61      37.80
 825.61      828.70      35.18
 828.70      830.76      29.92
 830.76      833.85      33.10
 833.85      836.43      26.25
 836.43      837.90      28.90
 837.90      841.44      52.66
 841.44      843.02      51.62
 843.02      845.10      38.43
 845.10      847.12      42.14
 847.12      849.17      54.29
 849.17      851.80      42.69
 851.80      853.38      26.87
 853.38      855.45      23.71
 855.45      858.48      25.83
 858.48      859.46      43.26
 859.46      861.52      47.49
 861.52      864.12      39.58
 864.12      869.27      31.69
 869.27      871.82      34.87
 871.82      874.36      38.05
 874.36      876.91      48.09
 876.91      880.55      41.25
 880.55      882.61      36.51
 882.61      887.72      33.36
 887.72      889.75      49.21
 889.75      891.86      42.89
 891.86      893.97      27.07
 893.97      896.50      20.22
 896.50      900.58      42.93
 900.58      902.68      30.28
 902.68      904.78      21.85
 904.78      906.85      12.36
 906.85      909.39      17.12
 909.39      912.45      20.83
 912.45      915.52      29.29
 915.52      917.09      24.02
 917.09      920.67      19.28
 920.67      922.17      26.69
 922.17      926.28      34.61
 926.28      928.37      28.30
 928.37      930.42      21.45
 930.42      932.44      29.37
 932.44      934.49      34.66
 934.49      937.06      30.98
 937.06      939.63      36.80
 939.63      943.24      31.54
 943.24      945.85      28.38
 945.85      948.96      13.09
 948.96      950.46      16.27
 950.46      953.50      30.53
 953.50      956.59      34.24
 956.59      960.18      27.93
 960.18      961.73      32.69
 961.73      966.91      24.79
 966.91      970.00      13.73
 970.00      971.99      25.35
 971.99      974.58      38.03
 974.58      977.16      19.04
 977.16      981.79      26.45
 981.79      984.92      19.08
 984.92      988.01       4.85
 988.01      989.51      13.83
 989.51      992.07      25.45
 992.07      994.66      17.54
 994.66      997.73      13.87
 997.73      999.72      23.91
 999.72     1002.85      32.89
1002.85     1006.90      21.82
1006.90     1010.55      32.92
1010.55     1014.15      12.90
1014.15     1021.30      20.30
1021.30     1023.90      24.03
1023.90     1026.45      29.84
1026.45     1029.55      24.05
1029.55     1032.15      16.68
1032.15     1035.20      11.94
1035.20     1039.25      35.18
1039.25     1042.40      29.39
1042.40     1043.95      22.54
1043.95     1046.55      10.95
1046.55     1048.55      19.93
1048.55     1050.65      23.63
1050.65     1053.20      12.04
1053.20     1054.20      20.48
1054.20     1056.80      25.25
1056.80     1058.85      21.56
1058.85     1061.95      14.71
1061.95     1066.55      11.57
1066.55     1069.60      21.62
1069.60     1071.20      13.71
1071.20     1074.25       8.97
1074.25     1080.40      19.55
1080.40     1082.95      24.85
1082.95     1088.15      11.68
1088.15     1089.65      14.33
1089.65     1092.75      21.20
1092.75     1095.85      10.67
1095.85     1098.35      16.48
1098.35     1102.45      31.27
1102.45     1108.70       9.66
1108.70     1111.75      18.66
1111.75     1114.30      11.29
ENDDATA            452
ENDSUBENT          469
SUBENT        23344005   20170625   20180122   20180122       2260
BIB                  5          8
REACTION   (55-CS-144(0,B-)56-BA-144,,PN/DE,,REL)
DECAY-DATA (55-CS-144,1.00SEC)
EN-SEC     (E,N) Energy of delayed neutrons.
ERR-ANALYS (E-ERR-DIG) Digitizing error of E ( X scale)
           (ERR-DIG)    Digitizing error of DATA ( Y scale)
           Quantization errors (one pixel):
           scale X - 1.04 keV, scale Y - 0.262 arb.units.
STATUS     (CURVE) Fig.29d of P,MAINZ-77,59,197
ENDBIB               8
COMMON               2          3
E-ERR-DIG  ERR-DIG
KEV        ARB-UNITS
 0.786      0.233
ENDCOMMON            3
DATA                 3        489
E-MIN      E-MAX      DATA
KEV        KEV        ARB-UNITS
              14.29       0.0
  14.29       14.66      13.66
  14.66       16.74      55.33
  16.74       18.26      90.70
  18.26       20.69     126.08
  20.69       23.39     142.85
  23.39       25.42     142.06
  25.42       27.93     136.55
  27.93       30.01     130.26
  30.01       32.03     136.81
  32.03       33.87     122.92
  33.87       35.77     102.22
  35.77       37.27      97.24
  37.27       39.31      93.83
  39.31       42.97      92.25
  42.97       45.05      98.02
  45.05       45.96      91.99
  45.96       48.51      80.19
  48.51       53.22      85.70
  53.22       57.44      85.95
  57.44       58.70      95.91
  58.70       60.98     118.44
  60.98       63.11     126.57
  63.11       65.70     125.78
  65.70       67.21     127.61
  67.21       68.71     118.96
  68.71       70.83     118.17
  70.83       72.90     126.56
  72.90       74.37     117.38
  74.37       77.49     113.45
  77.49       79.52     118.69
  79.52       81.52     107.68
  81.52       83.65     107.16
  83.65       85.16     115.80
  85.16       87.60     101.13
  87.60       90.72      91.95
  90.72       93.35     103.22
  93.35       95.43      97.19
  95.43       97.17     104.52
  97.17       98.83     122.60
  98.83      100.88     120.77
 100.88      104.01     119.46
 104.01      105.59     121.81
 105.59      107.22     123.38
 107.22      109.91     133.34
 109.91      111.98     138.32
 111.98      114.06     132.29
 114.06      115.69     138.57
 115.69      117.16     143.03
 117.16      118.60     125.99
 118.60      121.26     125.47
 121.26      122.88     136.47
 122.88      126.01     135.16
 126.01      129.64     138.56
 129.64      131.12     135.68
 131.12      133.57     127.03
 133.57      136.14     114.97
 136.14      138.75     123.09
 138.75      141.47     116.54
 141.47      143.13     142.74
 143.13      144.90     133.05
 144.90      147.29      96.36
 147.29      149.42     103.43
 149.42      151.95     104.74
 151.95      153.98      95.04
 153.98      156.10      97.14
 156.10      158.14     100.80
 158.14      160.30      93.99
 160.30      161.57     111.54
 161.57      164.24     129.62
 164.24      165.64     122.28
 165.64      167.63     107.35
 167.63      168.76     108.92
 168.76      171.41     120.45
 171.41      174.00     117.04
 174.00      176.69     120.18
 176.69      179.37     132.75
 179.37      181.35     131.70
 181.35      183.32     119.91
 183.32      185.86     116.24
 185.86      187.95     111.26
 187.95      189.52     119.64
 189.52      191.00     112.30
 191.00      193.10     107.32
 193.10      195.25     117.02
 195.25      197.26     118.06
 197.26      199.81     108.63
 199.81      201.40     110.98
 201.40      203.97     113.08
 203.97      205.59     109.15
 205.59      207.37     121.46
 207.37      209.97     141.64
 209.97      211.70     121.98
 211.70      214.16      92.37
 214.16      215.36     101.80
 215.36      216.44     116.21
 216.44      218.45     108.87
 218.45      221.06     107.04
 221.06      221.13     109.66
 221.13      223.26     118.83
 223.26      225.29     118.04
 225.29      227.83     110.18
 227.83      229.35     112.01
 229.35      231.30     104.41
 231.30      233.26      93.14
 233.26      235.87      88.42
 235.87      238.03      94.97
 238.03      240.17     100.73
 240.17      241.75     105.18
 241.75      243.20     102.82
 243.20      245.28      91.29
 245.28      249.46     102.82
 249.46      251.97      96.00
 251.97      254.03      90.24
 254.03      255.12      94.69
 255.12      257.65      97.57
 257.65      259.75      86.30
 259.75      261.55      99.93
 261.55      264.35     121.68
 264.35      265.86     130.84
 265.86      266.65     115.12
 266.65      268.64      95.20
 268.64      270.78     102.80
 270.78      273.29     103.58
 273.29      275.33      91.00
 275.33      277.45      99.13
 277.45      281.49      97.55
 281.49      285.63      82.35
 285.63      288.71      96.76
 288.71      291.72      77.10
 291.72      292.83      81.82
 292.83      295.12      86.79
 295.12      297.30     113.52
 297.30      299.61     103.30
 299.61      301.62      71.59
 301.62      303.82      93.86
 303.82      305.26      89.14
 305.26      307.76      77.09
 307.76      309.77      76.04
 309.77      311.86      67.91
 311.86      313.53      77.08
 313.53      316.68      84.94
 316.68      317.58      83.63
 317.58      319.56      65.02
 319.56      321.21      69.21
 321.21      323.86      78.65
 323.86      327.50      77.86
 327.50      330.09      79.95
 330.09      331.69      77.07
 331.69      333.91      87.02
 333.91      335.97      97.77
 335.97      337.89      84.66
 337.89      339.85      75.75
 339.85      342.97      68.15
 342.97      344.51      75.74
 344.51      348.18      65.78
 348.18      350.85      81.77
 350.85      352.86      76.79
 352.86      354.80      72.07
 354.80      356.75      58.18
 356.75      359.77      52.93
 359.77      362.26      45.59
 362.26      363.86      37.99
 363.86      365.59      51.35
 365.59      368.26      63.41
 368.26      369.73      62.36
 369.73      372.26      51.61
 372.26      374.45      52.40
 374.45      375.63      69.69
 375.63      378.12      72.05
 378.12      380.55      55.27
 380.55      382.61      47.67
 382.61      384.32      52.91
 384.32      387.05      69.94
 387.05      388.00      72.82
 388.00      390.06      58.15
 390.06      392.27      69.94
 392.27      394.29      79.11
 394.29      396.60      61.55
 396.60      398.60      36.91
 398.60      400.31      50.54
 400.31      402.81      59.71
 402.81      404.76      36.91
 404.76      406.48      40.58
 406.48      408.67      61.54
 408.67      411.75      58.39
 411.75      414.71      56.82
 414.71      416.16      35.06
 416.16      418.42      42.40
 418.42      420.03      60.74
 420.03      422.00      50.52
 422.00      424.12      46.06
 424.12      426.16      56.28
 426.16      427.58      42.13
 427.58      429.19      35.84
 429.19      431.39      51.30
 431.39      433.55      53.39
 433.55      435.64      63.09
 435.64      438.02      56.53
 438.02      441.05      31.11
 441.05      442.24      44.48
 442.24      444.96      53.91
 444.96      446.52      62.82
 446.52      449.02      54.95
 449.02      450.51      49.97
 450.51      453.50      44.73
 453.50      456.04      30.84
 456.04      457.71      37.65
 457.71      459.37      46.56
 459.37      461.51      53.63
 461.51      464.07      55.99
 464.07      467.69      48.12
 467.69      469.76      55.98
 469.76      472.28      47.07
 472.28      474.90      45.23
 474.90      477.45      50.73
 477.45      479.89      39.73
 479.89      481.94      27.67
 481.94      484.18      36.84
 484.18      485.86      50.47
 485.86      487.38      54.66
 487.38      489.38      44.96
 489.38      491.48      45.48
 491.48      493.53      47.84
 493.53      496.15      43.12
 496.15      497.28      51.24
 497.28      499.87      56.22
 499.87      501.30      50.19
 501.30      503.79      37.87
 503.79      506.00      35.77
 506.00      508.17      56.21
 508.17      510.01      50.71
 510.01      510.91      22.93
 510.91      513.70      30.00
 513.70      514.89      51.75
 514.89      516.94      52.53
 516.94      519.45      47.82
 519.45      521.95      41.00
 521.95      524.04      33.40
 524.04      526.68      42.31
 526.68      527.63      40.47
 527.63      529.13      29.99
 529.13      530.70      32.34
 530.70      532.77      31.56
 532.77      535.85      32.34
 535.85      538.96      25.52
 538.96      541.59      33.38
 541.59      544.18      29.97
 544.18      547.89      33.64
 547.89      550.49      40.98
 550.49      551.42      33.90
 551.42      554.56      26.82
 554.56      556.23      37.56
 556.23      558.30      44.38
 558.30      560.77      35.46
 560.77      562.46      27.34
 562.46      564.19      55.11
 564.19      566.10      52.49
 566.10      567.52      30.74
 567.52      569.65      32.31
 569.65      571.82      38.34
 571.82      575.02      47.24
 575.02      577.04      50.39
 577.04      578.41      39.64
 578.41      580.90      23.92
 580.90      582.98      24.70
 582.98      585.59      23.13
 585.59      587.66      27.32
 587.66      589.14      23.12
 589.14      591.14      16.04
 591.14      594.27      11.85
 594.27      595.98      18.92
 595.98      598.12      34.91
 598.12      600.15      27.83
 600.15      602.25      29.66
 602.25      604.83      30.45
 604.83      606.89      26.78
 606.89      608.97      29.39
 608.97      610.53      26.77
 610.53      611.63      30.96
 611.63      613.24      36.47
 613.24      616.86      38.30
 616.86      618.38      34.89
 618.38      620.37      32.53
 620.37      622.31      22.31
 622.31      623.83      12.35
 623.83      626.02      17.59
 626.02      627.63      28.59
 627.63      630.16      26.23
 630.16      632.26      19.94
 632.26      633.91      29.37
 633.91      635.95      33.56
 635.95      639.59      25.44
 639.59      641.75      33.30
 641.75      644.35      37.75
 644.35      646.93      34.34
 646.93      650.52      37.74
 650.52      654.03      26.47
 654.03      656.06      21.49
 656.06      658.58      18.34
 658.58      660.65      11.27
 660.65      661.24      18.34
 661.24      662.88      21.48
 662.88      664.42      29.61
 664.42      666.93      20.70
 666.93      668.97      18.07
 668.97      671.59      14.14
 671.59      673.26      21.48
 673.26      675.85      31.17
 675.85      677.83      21.21
 677.83      680.39      18.06
 680.39      682.49      17.27
 682.49      683.58      20.42
 683.58      686.12      24.61
 686.12      688.08      12.82
 688.08      690.18       7.84
 690.18      692.36      17.00
 692.36      694.47      21.72
 694.47      696.96      23.03
 696.96      700.08       7.30
 700.08      701.84      23.55
 701.84      703.94      37.44
 703.94      706.41      27.21
 706.41      708.39      19.35
 708.39      709.35      13.06
 709.35      711.47       8.08
 711.47      712.61      19.61
 712.61      714.66      22.75
 714.66      717.28      17.51
 717.28      719.36      25.37
 719.36      721.85      18.03
 721.85      723.41       9.90
 723.41      725.07      19.86
 725.07      727.21      25.10
 727.21      729.28      29.55
 729.28      732.31      24.31
 732.31      734.33      17.23
 734.33      735.89      16.18
 735.89      736.97      18.80
 736.97      738.50      21.68
 738.50      741.01      14.34
 741.01      744.11       9.10
 744.11      745.74      13.81
 745.74      747.38      19.84
 747.38      749.47      25.08
 749.47      751.52      22.98
 751.52      753.61      22.19
 753.61      755.69      25.07
 755.69      757.70      22.98
 757.70      759.24      16.16
 759.24      761.35      18.78
 761.35      762.87      21.66
 762.87      764.86      13.01
 764.86      767.99      10.39
 767.99      769.04      15.10
 769.04      771.10      13.27
 771.10      773.71      12.48
 773.71      776.35      15.62
 776.35      778.98      19.03
 778.98      781.55      20.60
 781.55      785.69      15.62
 785.69      787.86      20.59
 787.86      790.43      27.66
 790.43      791.85      18.49
 791.85      794.95       7.22
 794.95      797.59      17.96
 797.59      800.20      12.46
 800.20      804.34      20.84
 804.34      806.31      11.14
 806.31      807.86       6.42
 807.86      810.51      9.04
 810.51      811.56      14.02
 811.56      814.64      12.18
 814.64      817.79       9.30
 817.79      821.48      16.89
 821.48      828.20      18.20
 828.20      830.20      14.00
 830.20      831.73       6.66
 831.73      833.86      11.38
 833.86      836.46      13.74
 836.46      837.46      12.42
 837.46      840.57       8.23
 840.57      842.16      12.16
 842.16      844.19      13.73
 844.19      845.66       6.39
 845.66      848.76       0.36
 848.76      851.93       5.08
 851.93      853.52       8.74
 853.52      855.63       9.26
 855.63      857.70      13.19
 857.70      861.34       9.52
 861.34      864.41      13.71
 864.41      866.48       5.32
 866.48      868.65      13.18
 868.65      870.75      18.68
 870.75      872.76      15.80
 872.76      874.87       8.99
 874.87      876.49      20.78
 876.49      878.48      19.46
 878.48      880.00       8.46
 880.00      882.10      13.96
 882.10      883.64      12.65
 883.64      885.69      11.34
 885.69      888.29      10.28
 888.29      889.36      11.07
 889.36      892.00      13.69
 892.00      895.61      18.40
 895.61      898.65      11.32
 898.65      902.23       8.18
 902.23      906.92       2.67
 906.92      909.08      12.62
 909.08      911.71      14.98
 911.71      913.77      17.86
 913.77      915.76      12.88
 915.76      917.27       3.71
 917.27      919.92       7.64
 919.92      926.13      13.14
 926.13      928.14       5.53
 928.14      930.31       3.70
 930.31      932.43      18.11
 932.43      933.37      12.34
 933.37      934.90       2.12
 934.90      937.57       8.41
 937.57      940.16      12.60
 940.16      942.26      10.24
 942.26      943.86      14.69
 943.86      945.87      16.79
 945.87      948.37       5.25
 948.37      954.15       3.42
 954.15      956.81      17.04
 956.81      957.75      12.32
 957.75      961.32       2.62
 961.32      963.41       3.14
 963.41      968.08       5.24
 968.08      970.67       2.61
 970.67      972.78       5.49
 972.78      974.85       7.33
 974.85      976.44       5.75
 976.44      978.06      12.56
 978.06      980.17      15.18
 980.17      982.23      18.59
 982.23      983.68      12.30
 983.68      985.17       2.60
 985.17      988.34       3.38
 988.34      991.43       9.15
 991.43      994.53       2.33
 994.53      996.68       5.73
 996.68     1004.50      14.12
1004.50     1006.00       9.66
1006.00     1008.00       5.20
1008.00     1011.15       3.63
1011.15     1012.75       5.46
1012.75     1014.80       9.13
1014.80     1016.30       5.98
1016.30     1019.90       3.36
1019.90     1022.55       1.00
1022.55     1025.15       4.92
1025.15     1027.25       9.90
1027.25     1028.70       4.66
1028.70     1031.35       0.99
1031.35     1033.05      11.73
1033.05     1035.05      15.92
1035.05     1037.10       7.27
1037.10     1040.25       4.91
1040.25     1041.35      13.82
1041.35     1043.95      15.91
1043.95     1045.00      12.24
1045.00     1047.00      13.82
1047.00     1050.10       7.52
1050.10     1053.20      12.50
1053.20     1055.20       4.64
1055.20     1057.75       0.18
1057.75     1058.85       2.54
1058.85     1060.95       9.09
1060.95     1062.50       5.42
1062.50     1065.00       2.79
1065.00     1073.35       0.43
1073.35     1077.00       4.09
1077.00     1085.75       0.42
1085.75     1089.45       4.08
1089.45     1092.15       6.96
1092.15     1095.75      11.15
1095.75     1097.75       5.39
1097.75     1099.80       2.76
1099.80     1101.90       4.33
1101.90     1102.95       5.38
1102.95     1107.10       9.05
1107.10     1109.65       4.33
1109.65                   0.0
ENDDATA            491
ENDSUBENT          508
SUBENT        23344006   20170625   20180122   20180122       2260
BIB                  5          8
REACTION   (55-CS-145(0,B-)56-BA-145,,PN/DE,,REL)
DECAY-DATA (55-CS-145,0.62SEC)
EN-SEC     (E,N) Energy of delayed neutrons.
ERR-ANALYS (E-ERR-DIG) Digitizing error of E ( X scale)
           (ERR-DIG)    Digitizing error of DATA ( Y scale)
           Quantization errors (one pixel):
           scale X - 1.02 keV, scale Y - 0.262 arb.units.
STATUS     (CURVE) Fig.29e of P,MAINZ-77,59,197
ENDBIB               8
COMMON               2          3
E-ERR-DIG  ERR-DIG
KEV        ARB-UNITS
 0.800      0.149
ENDCOMMON            3
DATA                 3        507
E-MIN      E-MAX      DATA
KEV        KEV        ARB-UNITS
              24.55        0.331
  24.55       26.26       14.083
  26.26       27.99       28.883
  27.99       30.17       40.541
  30.17       32.46       59.272
  32.46       34.45       62.810
  34.45       36.46       62.289
  36.46       38.40       65.042
  38.40       40.33       69.629
  40.33       42.31       73.691
  42.31       45.79       74.219
  45.79       48.16       79.987
  48.16       49.51       88.632
  49.51       51.43       95.051
  51.43       53.99       98.328
  53.99       56.15       92.309
  56.15       58.71       87.074
  58.71       59.15       90.480
  59.15       61.11       92.708
  61.11       63.52       97.034
  63.52       65.54      103.585
  65.54       67.17       97.562
  67.17       69.47       95.864
  69.47       72.20      116.425
  72.20       74.22      123.240
  74.22       75.86      117.880
  75.86       77.85      112.640
  77.85       80.16      121.415
  80.16       81.67      132.160
  81.67       83.83      122.730
  83.83       85.44      120.380
  85.44       86.60      115.665
  86.60       89.28      106.630
  89.28       93.93      103.885
  93.93       95.57       99.309
  95.57       98.40       93.682
  98.40       99.95      117.520
  99.95      101.89      135.590
 101.89      104.10      125.120
 104.10      106.06      120.150
 106.06      106.76      131.150
 106.76      109.67      147.780
 109.67      111.23      143.200
 111.23      113.41      143.990
 113.41      116.31      130.245
 116.31      118.98      112.180
 118.98      120.32      118.600
 120.32      122.27      128.030
 122.27      123.38      125.150
 123.38      126.48      119.655
 126.48      128.48      120.575
 128.48      131.29      122.020
 131.29      134.01       96.618
 134.01      135.42      105.525
 135.42      138.00      107.625
 138.00      140.05      101.210
 140.05      141.54      106.190
 141.54      144.12      103.180
 144.12      146.02      102.790
 146.02      147.95      114.450
 147.95      150.31      110.785
 150.31      153.51       86.170
 153.51      154.17       97.173
 154.17      156.03      117.210
 156.03      158.19      112.370
 158.19      160.26      105.040
 160.26      162.13      108.050
 162.13      164.54      119.580
 164.54      166.51      119.320
 166.51      168.50      125.480
 168.50      171.04      122.340
 171.04      171.73      124.960
 171.73      174.09      151.155
 174.09      176.33      139.900
 176.33      177.97      132.565
 177.97      179.62      130.210
 179.62      182.86      120.920
 182.86      185.95      113.330
 185.95      187.36      116.340
 187.36      189.86      123.155
 189.86      191.47      119.620
 191.47      194.12      115.960
 194.12      195.78      109.550
 195.78      199.16      104.050
 199.16      200.97      124.610
 200.97      202.78      123.175
 202.78      205.05       99.345
 205.05      206.15      101.970
 206.15      208.57       91.362
 208.57      210.86       67.924
 210.86      212.75       69.368
 212.75      215.22       79.716
 215.22      216.98       74.743
 216.98      219.00       59.426
 219.00      220.01       75.532
 220.01      221.03       81.559
 221.03      222.50       97.276
 222.50      224.67       86.410
 224.67      226.76       84.317
 226.76      227.74       81.832
 227.74      229.55       87.203
 229.55      232.52      100.565
 232.52      234.26       93.889
 234.26      236.39       81.582
 236.39      238.05       84.728
 238.05      240.86       70.196
 240.86      242.88       60.510
 242.88      244.83       70.071
 244.83      246.31       68.372
 246.31      248.69       74.006
 248.69      250.57       81.866
 250.57      252.22       86.846
 252.22      253.99       70.478
 253.99      256.87       66.030
 256.87      258.24       83.974
 258.24      260.26       79.524
 260.26      261.69       85.288
 261.69      264.23       87.125
 264.23      266.27       84.770
 266.27      268.26       86.214
 268.26      270.02       87.397
 270.02      271.75      110.185
 271.75      273.87      113.855
 273.87      276.16      102.465
 276.16      278.06      90.814
 278.06      279.85      113.865
 279.85      281.01      112.160
 281.01      283.63      101.300
 283.63      286.27      104.840
 286.27      287.48       91.221
 287.48      290.11       88.735
 290.11      292.51       82.846
 292.51      294.83       55.480
 294.83      296.30       57.841
 296.30      298.77       59.938
 298.77      301.42       63.871
 301.42      303.65       49.207
 303.65      305.93       46.855
 305.93      307.96       72.001
 307.96      309.97       91.122
 309.97      312.77       73.450
 312.77      314.34       67.820
 314.34      316.20       69.918
 316.20      317.97       82.231
 317.97      320.48       92.448
 320.48      322.73       84.333
 322.73      324.44       73.205
 324.44      325.97       67.838
 325.97      328.51       72.817
 328.51      330.71       67.583
 330.71      332.37       58.156
 332.37      334.90       55.017
 334.90      335.72       58.162
 335.72      338.53       72.832
 338.53      342.42       78.076
 342.42      344.99       87.772
 344.99      346.79       75.464
 346.79      348.99       63.420
 348.99      350.08       60.541
 350.08      352.02       57.401
 352.02      353.45       67.750
 353.45      355.59       65.262
 355.59      358.06       58.065
 358.06      360.50       71.294
 360.50      362.17       66.846
 362.17      364.34       57.288
 364.34      366.41       55.328
 366.41      368.44       53.498
 368.44      370.22       55.596
 370.22      371.89       74.718
 371.89      373.94       86.375
 373.94      376.30       74.200
 376.30      377.60       57.047
 377.60      380.08       49.325
 380.08      381.18       62.422
 381.18      383.11       85.996
 383.11      385.51       71.333
 385.51      388.20       52.478
 388.20      389.57       57.983
 389.57      391.48       66.365
 391.48      393.59       68.726
 393.59      395.90       59.301
 395.90      398.10       43.459
 398.10      400.19       44.903
 400.19      403.25       37.573
 403.25      404.12       44.124
 404.12      407.13       49.627
 407.13      409.20       47.273
 409.20      411.34       46.228
 411.34      413.35       37.719
 413.35      415.21       47.544
 415.21      417.83       52.916
 417.83      419.88       40.218
 419.88      421.17       50.959
 421.17      422.63       60.520
 422.63      424.89       55.547
 424.89      426.19       40.358
 426.19      428.50       30.933
 428.50      430.57       60.663
 430.57      432.92       71.929
 432.92      435.51       76.910
 435.51      437.06       66.042
 437.06      439.42       31.604
 439.42      441.26       36.715
 441.26      444.66       47.719
 444.66      446.83       49.950
 446.83      449.13       35.810
 449.13      451.17       26.384
 451.17      452.50       34.505
 452.50      456.31       42.892
 456.31      459.21       56.516
 459.21      460.77       55.603
 460.77      462.87       52.331
 462.87      465.14       49.977
 465.14      467.29       31.255
 467.29      469.09       39.770
 469.09      470.98       51.035
 470.98      472.65       51.953
 472.65      474.75       37.945
 474.75      477.62       46.199
 477.62      480.50       53.406
 480.50      482.77       59.958
 482.77      484.68       32.590
 484.68      487.14       26.177
 487.14      488.99       38.752
 488.99      490.79       41.635
 490.79      493.11       59.188
 493.11      495.43       60.761
 495.43      498.33       33.395
 498.33      500.74       29.471
 500.74      502.64       44.011
 502.64      506.07       40.086
 506.07      508.25       56.068
 508.25      511.28       71.261
 511.28      512.25       55.944
 512.25      514.47       31.718
 514.47      516.87       38.270
 516.87      518.96       44.560
 518.96      520.20       33.038
 520.20      522.14       24.398
 522.14      524.28       40.901
 524.28      526.75       59.239
 526.75      528.55       46.669
 528.55      530.67       35.017
 530.67      532.20       38.425
 532.20      535.21       34.107
 535.21      537.15       41.313
 537.15      538.42       42.232
 538.42      540.91       62.926
 540.91      542.35       46.691
 542.35      544.09       25.871
 544.09      545.46       27.839
 545.46      548.35       38.710
 548.35      550.79       41.989
 550.79      552.30       46.706
 552.30      554.35       43.304
 554.35      556.38       44.355
 556.38      557.35       43.047
 557.35      559.37       49.074
 559.37      561.46       43.315
 561.46      562.93       44.627
 562.93      565.55       46.856
 565.55      567.83       38.086
 567.83      570.47       24.733
 570.47      571.90       28.532
 571.90      573.99       32.334
 573.99      576.58       23.694
 576.58      578.39       28.148
 578.39      579.74       42.034
 579.74      581.79       44.132
 581.79      583.88       40.075
 583.88      586.92       38.377
 586.92      588.47       40.343
 588.47      591.93       36.158
 591.93      593.88       47.292
 593.88      595.94       43.629
 595.94      599.26       44.811
 599.26      601.11       20.065
 601.11      603.61       16.009
 603.61      606.50       23.215
 606.50      608.51       29.243
 608.51      609.56       25.055
 609.56      612.03       26.236
 612.03      614.10       30.823
 614.10      617.21       22.445
 617.21      619.16       24.807
 619.16      621.74       29.002
 621.74      623.39       21.408
 623.39      625.91       17.352
 625.91      627.83       23.511
 627.83      629.66       27.442
 629.66      632.69       40.017
 632.69      635.82       28.499
 635.82      638.36       32.955
 638.36      640.50       28.506
 640.50      642.08       22.747
 642.08      643.63       23.928
 643.63      645.75       20.131
 645.75      648.24       16.339
 648.24      649.65       24.198
 649.65      652.23       25.119
 652.23      654.16       20.014
 654.16      655.48       34.945
 655.48      657.11       37.698
 657.11      659.86       25.785
 659.86      662.58       18.849
 662.58      664.59        9.685
 664.59      666.49       20.034
 666.49      668.07       21.215
 668.07      669.45       15.194
 669.45      671.72       33.529
 671.72      673.91       37.986
 673.91      675.80       19.130
 675.80      678.26        6.826
 678.26      679.43       25.422
 679.43      681.85       37.081
 681.85      683.91       35.906
 683.91      685.59       34.599
 685.59      687.19       22.291
 687.19      689.20       27.272
 689.20      690.82       24.130
 690.82      693.38       19.288
 693.38      695.01       21.780
 695.01      697.26        9.996
 697.26      699.29        1.358
 699.29      701.07       10.527
 701.07      702.47       22.969
 702.47      705.46       21.794
 705.46      707.89       27.298
 707.89      709.47       31.232
 709.47      711.16       21.804
 711.16      714.76       16.700
 714.76      717.31       18.147
 717.31      719.33       15.006
 719.33      721.20       18.939
 721.20      722.48       28.631
 722.48      724.92       40.420
 724.92      727.67       36.627
 727.67      729.35       22.618
 729.35      731.41       22.358
 731.41      733.97       19.480
 733.97      735.53       21.056
 735.53      737.67       15.689
 737.67      739.71       11.109
 739.71      741.67       14.778
 741.67      743.22       16.876
 743.22      745.22       12.689
 745.22      749.34       19.634
 749.34      751.04        7.198
 751.04      752.94        4.320
 752.94      755.22       18.203
 755.22      757.82       26.590
 757.82      759.56       12.711
 759.56      761.60        8.523
 761.60      763.47       10.884
 763.47      765.45       22.542
 765.45      766.14       15.340
 766.14      768.68        5.914
 768.68      770.52       15.346
 770.52      772.59       22.552
 772.59      775.34       11.687
 775.34      777.40        4.357
 777.40      778.88        8.288
 778.88      781.29       14.054
 781.29      783.02       26.889
 783.02      785.24       18.773
 785.24      787.53        7.253
 787.53      790.54        8.566
 790.54      792.43       14.595
 792.43      794.66        5.954
 794.66      796.67        6.874
 796.67      798.73        5.699
 798.73      801.29        1.251
 801.29      802.22        8.325
 802.22      803.69       10.161
 803.69      806.61       16.058
 806.61      808.67       14.227
 808.67      809.41        4.145
 809.41      811.01        1.004
 811.01      814.36        9.915
 814.36      817.55        3.372
 817.55      820.00        7.173
 820.00      821.12        2.853
 821.12      822.58        5.213
 822.58      824.94       12.550
 824.94      827.00       11.899
 827.00      830.75        2.868
 830.75      832.94       17.801
 832.94      835.82       25.401
 835.82      837.03       16.366
 837.03      838.74        8.773
 838.74      841.43        1.313
 841.43      843.38        5.244
 843.38      844.41        4.460
 844.41      845.80       10.224
 845.80      847.96        4.466
 847.96      849.86       10.230
 849.86      851.72       17.829
 851.72      853.39       10.759
 853.39      855.53        6.049
 855.53      857.50        8.802
 857.50      859.22       22.686
 859.22      860.78       20.462
 860.78      862.50       12.345
 862.50      864.67        5.932
 864.67      866.81        1.220
 866.81      868.67        8.426
 868.67      870.62       11.965
 870.62      871.75        6.859
 871.75      875.28        7.650
 875.28      878.81        8.834
 878.81      881.28       11.719
 881.28      882.36        8.970
 882.36      885.53        2.820
 885.53      888.76       17.099
 888.76      890.69       21.555
 890.69      892.28       18.415
 892.28      894.85       17.371
 894.85      895.84       18.419
 895.84      898.51       12.662
 898.51      901.23        4.416
 901.23      904.60       12.410
 904.60      906.30        4.424
 906.30      908.87        2.987
 908.87      911.38        4.169
 911.38      914.49        1.424
 914.49      916.85        9.023
 916.85      919.25       15.313
 919.25      921.59        1.435
 921.59      925.32       15.845
 925.32      927.47       10.873
 927.47      929.67        2.888
 929.67      932.17        4.594
 932.17      935.79        1.456
 935.79      940.33        2.773
 940.33      942.83        4.610
 942.83      944.89        2.911
 944.89      946.96        1.473
 946.96      948.97        2.000
 948.97      950.99        2.527
 950.99      952.83       10.912
 952.83      955.83       12.618
 955.83      959.77       17.732
 959.77      961.90       13.413
 961.90      964.09        6.738
 964.09      965.68        3.204
 965.68      967.75        1.505
 967.75      970.13        8.318
 970.13      971.87       21.154
 971.87      974.55       14.742
 974.55      977.27        6.496
 977.27      978.76        8.201
 978.76      979.70       11.476
 979.70      982.27        9.908
 982.27      983.68       14.494
 983.68      986.07       21.439
 986.07      988.24       15.156
 988.24      991.59        1.803
 991.59      994.53        6.129
 994.53      998.35       17.005
 998.35      999.50       10.066
 999.50     1002.00       11.510
1002.00     1004.10        9.942
1004.10     1006.80        1.565
1006.80     1008.20        7.984
1008.20     1010.80        5.237
1010.80     1013.90        1.575
1013.90     1015.40        4.851
1015.40     1018.45        3.416
1018.45     1020.25       13.240
1020.25     1022.60       20.447
1022.60     1024.35       10.758
1024.35     1026.80       13.774
1026.80     1029.55        5.266
1029.55     1031.90       14.961
1031.90     1033.85       17.320
1033.85     1036.10        8.943
1036.10     1037.90       16.148
1037.90     1039.90       19.032
1039.90     1042.25        5.023
1042.25     1045.35        1.492
1045.35     1050.40        3.202
1050.40     1051.90        5.038
1051.90     1054.20       15.780
1054.20     1057.15       19.189
1057.15     1059.30       14.217
1059.30     1061.05        3.742
1061.05     1064.65        1.784
1064.65     1068.00       10.301
1068.00     1069.80       21.042
1069.80     1072.05       10.569
1072.05     1074.20        3.763
1074.20     1075.65        8.217
1075.65     1078.15       10.578
1078.15     1081.10       13.988
1081.10     1082.30        4.037
1082.30     1084.45        1.421
1084.45     1086.30        6.662
1086.30     1088.75       12.428
1088.75     1090.95        5.359
1090.95     1093.55        1.697
1093.55     1097.00        6.809
1097.00     1099.85       14.540
1099.85     1101.55        7.209
1101.55     1105.20        1.714
1105.20     1107.10        9.051
1107.10     1109.20        3.945
ENDDATA            509
ENDSUBENT          526
SUBENT        23344007   20170625   20180122   20180122       2260
BIB                  5          8
REACTION   (55-CS-146(0,B-)56-BA-146,,PN/DE,,REL)
DECAY-DATA (55-CS-146,0.33SEC)
EN-SEC     (E,N) Energy of delayed neutrons.
ERR-ANALYS (E-ERR-DIG) Digitizing error of E ( X scale)
           (ERR-DIG)    Digitizing error of DATA ( Y scale)
           Quantization errors (one pixel):
           scale X - 0.856 keV, scale Y - 0.0560 arb.units.
STATUS     (CURVE) Fig.29f of P,MAINZ-77,59,197
ENDBIB               8
COMMON               2          3
E-ERR-DIG  ERR-DIG
KEV        ARB-UNITS
 0.336      0.0364
ENDCOMMON            3
DATA                 3        417
E-MIN      E-MAX      DATA
KEV        KEV        ARB-UNITS
              22.339     1.5839
  22.339      24.370    20.4850
  24.370      28.206    23.9620
  28.206      30.772    24.3830
  30.772      34.208    24.6070
  34.208      36.796    22.4480
  36.796      39.786    20.9620
  39.786      43.201    24.1870
  43.201      45.787    23.0650
  45.787      49.204    20.9620
  49.204      52.608    25.0850
  52.608      55.608    25.5620
  55.608      58.621    24.8050
  58.621      60.355    22.5050
  60.355      64.209    20.4300
  64.209      66.778    22.7580
  66.778      70.231    20.6830
  70.231      73.251    17.2340
  73.251      76.248    16.3085
  76.248      79.243    17.3460
  79.243      80.966    17.0380
  80.966      84.404    15.3270
  84.404      87.815    14.7390
  87.815      91.655    18.4120
  91.655      94.239    17.6550
  94.239      97.230    15.6920
  97.230     100.635    19.0860
 100.635     104.055    20.1230
 104.055     108.320    20.2640
 108.320     112.595    24.2180
 112.595     116.460    21.3860
 116.460     119.020    22.6760
 119.020     122.020    22.9845
 122.020     124.575    22.3400
 124.575     127.990    26.0410
 127.990     130.575    24.0500
 130.575     134.015    23.6580
 134.015     137.455    20.7140
 137.455     143.020    21.1345
 143.020     146.880    20.8260
 146.880     148.610    20.7140
 148.610     150.765    17.3770
 150.765     154.620    18.0220
 154.620     158.045    17.1810
 158.045     160.620    17.8540
 160.620     164.050    16.1160
 164.050     167.030    17.4900
 167.030     170.035    19.5370
 170.035     173.900    16.1720
 173.900     176.900    17.6870
 176.900     179.485    15.5000
 179.485     182.065    15.0510
 182.065     185.070    13.2840
 185.070     187.640    14.1820
 187.640     190.650    12.6120
 190.650     194.060    11.9670
 194.060     197.475    16.0050
 197.475     200.895    14.4070
 200.895     203.445    17.5200
 203.445     206.445    18.6975
 206.445     209.435    15.9780
 209.435     211.980    20.7730
 211.980     214.995    21.1940
 214.995     217.595    17.4640
 217.595     221.425    15.7540
 221.425     223.945    22.0630
 223.945     226.520    25.0080
 226.520     230.000    21.2785
 230.000     234.310    14.5760
 234.310     236.855    16.3430
 236.855     239.405    18.9230
 239.405     242.805    20.3820
 242.805     245.370    23.7470
 245.370     248.385    22.0360
 248.385     251.415    20.5500
 251.415     254.855    15.8110
 254.855     257.845    17.1290
 257.845     261.240    18.0830
 261.240     264.235    23.5790
 264.235     265.995    18.8400
 265.995     269.420    13.4840
 269.420     272.375    19.2610
 272.375     275.775    22.4580
 275.775     278.765    24.7020
 278.765     282.220    23.6360
 282.220     285.250    18.9250
 285.250     287.390    17.2710
 287.390     290.815    19.4580
 290.815     293.840    16.9350
 293.840     297.690    14.0180
 297.690     300.220    17.9160
 300.220     303.215    22.4030
 303.215     306.235    19.1220
 306.235     308.795    18.2530
 308.795     311.795    20.7770
 311.795     315.640    17.8610
 315.640     318.200    22.3480
 318.200     320.785    20.5250
 320.785     323.370    19.5160
 323.370     326.800    16.5990
 326.800     329.370    18.7870
 329.370     332.390    16.2350
 332.390     335.390    14.9450
 335.390     338.825    15.5620
 338.825     342.255    12.7300
 342.255     344.820    15.5350
 344.820     347.835    13.5160
 347.835     350.830    11.6930
 350.830     354.275    14.0210
 354.275     357.270     8.9451
 357.270     360.220    13.6000
 360.220     363.195    19.2090
 363.195     366.190    17.6670
 366.190     368.320    19.9660
 368.320     371.295    19.7700
 371.295     375.595    24.7620
 375.595     377.760    17.3590
 377.760     380.760    19.0975
 380.760     387.640    17.1350
 387.640     389.375    13.4610
 389.375     392.385    12.3960
 392.385     395.395    11.1900
 395.395     398.395    10.5170
 398.395     401.800    10.8540
 401.800     405.220    14.6680
 405.220     408.220    12.4245
 408.220     410.365    14.1910
 410.365     412.955    12.7330
 412.955     416.390     9.4524
 416.390     419.360    11.5280
 419.360     423.225    13.8270
 423.225     426.235    10.7710
 426.235     428.800    11.3040
 428.800     432.210    11.5840
 432.210     434.790    13.8280
 434.790     437.815     9.4533
 437.815     440.830     8.6121
 440.830     444.665     6.7334
 444.665     446.780    12.0620
 446.780     450.235    11.7250
 450.235     453.230     7.2105
 453.230     456.215    12.9870
 456.215     458.800     9.0896
 458.800     462.650     9.6786
 462.650     466.070     9.2302
 466.070     468.625    11.6980
 468.625     471.630    12.8480
 471.630     473.360    10.2960
 473.360     476.805     8.4173
 476.805     480.230     6.9313
 480.230     483.215     8.5017
 483.215     486.220     9.5115
 486.220     489.650     7.4084
 489.650     492.205     9.4556
 492.205     494.760    10.5770
 494.760     497.755    11.7830
 497.755     501.630    11.2790
 501.630     505.060     7.7455
 505.060     508.505     9.6526
 508.505     510.665     4.9135
 510.665     513.230     6.2596
 513.230     514.950     5.1940
 514.950     517.940     5.3624
 517.940     521.795     6.5684
 521.795     525.220     5.3347
 525.220     528.205     7.3259
 528.205     530.765     8.3075
 530.765     532.910     8.8123
 532.910     536.770     7.1579
 536.770     539.755     7.4946
 539.755     543.165     9.7942
 543.165     545.300    10.8320
 545.300     548.740    11.3650
 548.740     551.750     8.4766
 551.750     554.765     8.8693
 554.765     557.775     5.2800
 557.775     561.200     6.5420
 561.200     564.205     5.5046
 564.205     567.185     4.8317
 567.185     571.030     9.0943
 571.030     573.625     7.1315
 573.625     575.345     3.7946
 575.345     578.760     6.5428
 578.760     581.760     4.8604
 581.760     584.750     7.1040
 584.750     587.755     6.3469
 587.755     590.750     5.2253
 590.750     593.295     7.3286
 593.295     596.285    10.4130
 596.285     599.295     9.2919
 599.295     601.865     8.1142
 601.865     604.865     8.7874
 604.865     608.295     7.8621
 608.295     611.730     8.0585
 611.730     614.300     6.2079
 614.300     617.290     7.8904
 617.290     620.275     8.0588
 620.275     624.140    10.2180
 624.140     626.725     6.5168
 626.725     631.010     6.7133
 631.010     633.155     6.1806
 633.155     635.705     6.5453
 635.705     639.135     9.4056
 639.135     645.135     5.5921
 645.135     648.120     9.0695
 648.120     650.700     8.1443
 650.700     654.125     6.8825
 654.125     656.700     8.2287
 656.700     660.140     5.7611
 660.140     662.700     6.2660
 662.700     666.135     8.0608
 666.135     670.000     3.5742
 670.000     672.130     6.5467
 672.130     674.250     6.2104
 674.250     678.095    10.6970
 678.095     681.115     7.5847
 681.115     683.705     6.6875
 683.705     686.700     3.5187
 686.700     690.095     7.3047
 690.095     693.520    10.0810
 693.520     696.110     7.9219
 696.110     698.690     5.4823
 698.690     701.700     5.6506
 701.700     705.140     2.8746
 705.140     708.140     3.0149
 708.140     711.555     3.0712
 711.555     714.095     4.5294
 714.095     716.655     9.3809
 716.655     719.675     6.2403
 719.675     722.255     5.4272
 722.255     725.660     4.3056
 725.660     729.505     9.3254
 729.505     732.545     6.1847
 732.545     736.000     1.1372
 736.000     738.975     0.2120
 738.975     741.535     5.3159
 741.535     744.525     3.0445
 744.525     747.505     6.6060
 747.505     750.070     6.9988
 750.070     753.075     7.1671
 753.075     756.065     5.9333
 756.065     759.055     8.7938
 759.055     761.635     7.4759
 761.635     765.075     6.7189
 765.075     767.655     4.9524
 767.655     770.660     3.9991
 770.660     774.075     4.2515
 774.075     776.200     7.2803
 776.200     779.200     6.7195
 779.200     782.210     7.1684
 782.210     786.075     4.4204
 786.075     788.625     4.5888
 788.625     791.600     8.2063
 791.600     795.460     8.6832
 795.460     797.615     8.2347
 797.615     800.635     4.9538
 800.635     804.510     4.1967
 804.510     807.500     1.5049
 807.500     810.920     5.3187
 810.920     814.355     2.7950
 814.355     816.920     3.8327
 816.920     819.480     3.5804
 819.480     822.475     5.5435
 822.475     825.875     4.3940
 825.875     828.415    11.4890
 828.415     831.845    10.5355
 831.845     834.845    10.7040
 834.845     837.010     9.3300
 837.010     839.600     7.1988
 839.600     843.045     5.2080
 843.045     846.050     3.5816
 846.050     849.045     3.3854
 849.045     852.045     4.1427
 852.045     855.475     3.1052
 855.475     857.615     3.3017
 857.615     861.035     4.0589
 861.035     864.040     3.7226
 864.040     867.475     2.7973
 867.475     871.320     2.3487
 871.320     874.755     4.5082
 874.755     882.055     0.3021
 882.055     884.620     1.0875
 884.620     888.470     0.8352
 888.470     891.440     2.7423
 891.440     894.850     6.2758
 894.850     897.440     5.6309
 897.440     900.020     2.4622
 900.020     903.450     3.6681
 903.450     906.455     2.0979
 906.455     910.305     1.2007
 910.305     912.000     3.2198
 912.000     915.425     4.8184
 915.425     918.840     3.5286
 918.840     921.835     7.3986
 921.835     924.000     4.7066
 924.000     927.010     2.5474
 927.010     930.865     2.2391
 930.865     933.430     2.8562
 933.430     936.860     2.4637
 936.860     939.420     2.9126
 939.420     941.975     4.9316
 941.975     944.970     5.8292
 944.970     947.960     4.9039
 947.960     950.515     6.6146
 950.515     953.950     8.4094
 953.950     956.985     4.3434
 956.985     959.985     1.5674
 959.985     963.405     4.0633
 963.405     965.995     3.1100
 965.995     969.005     0.3619
 969.005     972.840     0.9229
 972.840     975.815     3.2225
 975.815     978.375     5.9428
 978.375     981.370     4.9333
 981.370     984.795     6.6721
 984.795     987.810     5.1860
 987.810     991.255     3.5317
 991.255     994.675     1.9894
 994.675     997.240     4.4854
 997.240    1000.250     2.3823
1000.250    1002.350     0.5596
1002.350    1005.350     7.2058
1005.350    1008.350     3.7847
1008.350    1014.000     0.5040
1014.000    1017.400     1.7941
1017.400    1020.000     1.9344
1020.000    1022.500     2.0467
1022.500    1025.500     3.8135
1025.500    1028.950     5.5242
1028.950    1032.750     3.9260
1032.750    1035.300     8.1885
1035.300    1038.300    12.1430
1038.300    1041.300     8.0206
1041.300    1044.300     8.5254
1044.300    1047.700     9.7034
1047.700    1051.200     4.2072
1051.200    1055.450     5.7217
1055.450    1059.800     2.1885
1059.800    1062.800     3.7310
1062.800    1065.750     1.2634
1065.750    1067.900     3.4227
1067.900    1071.350     1.9086
1071.350    1074.350     3.8156
1074.350    1077.300     5.6104
1077.300    1080.350     3.9000
1080.350    1083.350     2.9747
1083.350    1086.800     0.8997
1086.800    1088.500     0.6193
1088.500    1091.900     0.3951
1091.900    1095.300     3.8726
1095.300    1097.900     2.2743
1097.900    1100.500     3.0876
1100.500    1103.900     2.5549
1103.900    1106.900     1.3492
1106.900    1110.800     0.9007
1110.800    1112.900     2.3590
1112.900    1116.800     0.4242
1116.800    1120.200     0.3122
1120.200    1122.750     0.3964
1122.750    1125.300     3.5934
1125.300    1128.750     3.8179
1128.750    1131.300     1.2100
1131.300    1134.350     1.5747
1134.350    1139.000     0.3690
1139.000    1141.600     0.4533
1141.600    1144.200     2.1360
1144.200    1148.900     0.4536
1148.900    1152.300     1.7717
1152.300    1157.900     0.3979
1157.900    1161.650     2.8658
1161.650    1164.700     8.2501
1164.700    1167.250     7.9978
1167.250    1170.700     4.9694
1170.700    1174.100     2.7262
1174.100    1177.150     5.3342
1177.150    1194.700     0.3992
1194.700    1198.100     1.7456
1198.100    1201.550     4.8304
1201.550    1204.550     0.6242
1204.550    1206.700     3.3724
1206.700    1208.850     1.8302
1208.850    1212.250     1.1013
1212.250    1217.800     0.5126
1217.800    1221.700     0.4847
1221.700    1224.700     1.2982
1224.700    1226.800     1.8590
1226.800    1229.800     3.9905
1229.800    1232.850     1.2984
1232.850    1237.550     0.4854
1237.550    1239.250     0.9342
1239.250    1241.800     3.7104
1241.800    1246.100     6.9916
1246.100    1248.250     3.6827
1248.250    1251.650     2.0564
1251.650    1255.100     1.0751
1255.100    1258.550     0.3741
1258.550    1261.100     1.0193
1261.100    1263.650     0.8231
1263.650    1266.150     8.4787
1266.150    1268.750     6.4317
1268.750    1272.200     5.4223
1272.200    1274.750     2.8707
1274.750    1277.750     6.7126
1277.750    1281.650     8.6757
1281.650    1284.250     2.4223
1284.250    1287.200     1.3007
1287.200    1289.350     1.8617
1289.350    1291.950     1.2449
1291.950    1294.900     1.6656
1294.900    1298.800     2.1986
1298.800    1302.200     3.3205
1302.200    1305.650     1.9185
1305.650    1308.200     1.0772
1308.200    1311.200     0.7409
1311.200    1314.600     2.5919
1314.600    1317.200     1.4703
1317.200                 0.9095
ENDDATA            419
ENDSUBENT          436
ENDENTRY             7
